          Evm          Svm            E11          E22          E33          E23          E13          E12         SDEV11       SDEV22       SDEV33       SDEV23       SDEV13       SDEV12      TEMP
  0.00000E+00  0.63489E+02    0.00000E+00  0.00000E+00  0.00000E+00  0.00000E+00  0.00000E+00  0.00000E+00    0.20484E+02  0.20825E+02 -0.41309E+02  0.32980E+00 -0.11064E+01  0.79026E+01      982.00
  0.24399E-01  0.63482E+02    0.12500E-01  0.12500E-01 -0.25000E-01  0.00000E+00  0.00000E+00  0.00000E+00    0.20026E+02  0.21247E+02 -0.41273E+02  0.45104E+00 -0.10707E+01  0.79989E+01      982.00
  0.48780E-01  0.63498E+02    0.25000E-01  0.25000E-01 -0.50000E-01  0.00000E+00  0.00000E+00  0.00000E+00    0.19716E+02  0.21530E+02 -0.41246E+02  0.59150E+00 -0.10464E+01  0.81095E+01      982.00
  0.73139E-01  0.63543E+02    0.37500E-01  0.37500E-01 -0.75000E-01  0.00000E+00  0.00000E+00  0.00000E+00    0.19484E+02  0.21750E+02 -0.41234E+02  0.72304E+00 -0.10417E+01  0.82368E+01      982.00
  0.97473E-01  0.63620E+02    0.50000E-01  0.50000E-01 -0.10000E+00  0.00000E+00  0.00000E+00  0.00000E+00    0.19312E+02  0.21926E+02 -0.41238E+02  0.84411E+00 -0.10536E+01  0.83795E+01      982.00
  0.12178E+00  0.63732E+02    0.62500E-01  0.62500E-01 -0.12500E+00  0.00000E+00  0.00000E+00  0.00000E+00    0.19182E+02  0.22079E+02 -0.41261E+02  0.95285E+00 -0.10798E+01  0.85378E+01      982.00
  0.14606E+00  0.63879E+02    0.75000E-01  0.75000E-01 -0.15000E+00  0.00000E+00  0.00000E+00  0.00000E+00    0.19100E+02  0.22206E+02 -0.41306E+02  0.10529E+01 -0.11141E+01  0.87059E+01      982.00
  0.17031E+00  0.64063E+02    0.87500E-01  0.87500E-01 -0.17500E+00  0.00000E+00  0.00000E+00  0.00000E+00    0.19052E+02  0.22320E+02 -0.41372E+02  0.11438E+01 -0.11546E+01  0.88861E+01      982.00
  0.19452E+00  0.64269E+02    0.10000E+00  0.10000E+00 -0.20000E+00  0.00000E+00  0.00000E+00  0.00000E+00    0.19032E+02  0.22420E+02 -0.41452E+02  0.12277E+01 -0.11996E+01  0.90736E+01      982.00
  0.21871E+00  0.64507E+02    0.11250E+00  0.11250E+00 -0.22500E+00  0.00000E+00  0.00000E+00  0.00000E+00    0.19036E+02  0.22513E+02 -0.41549E+02  0.13086E+01 -0.12495E+01  0.92727E+01      982.00
  0.24287E+00  0.64752E+02    0.12500E+00  0.12500E+00 -0.25000E+00  0.00000E+00  0.00000E+00  0.00000E+00    0.19066E+02  0.22591E+02 -0.41657E+02  0.13910E+01 -0.13072E+01  0.94528E+01      982.00
  0.26699E+00  0.65031E+02    0.13750E+00  0.13750E+00 -0.27500E+00  0.00000E+00  0.00000E+00  0.00000E+00    0.19114E+02  0.22668E+02 -0.41782E+02  0.14719E+01 -0.13678E+01  0.96534E+01      982.00
  0.29108E+00  0.65286E+02    0.15000E+00  0.15000E+00 -0.30000E+00  0.00000E+00  0.00000E+00  0.00000E+00    0.19172E+02  0.22728E+02 -0.41900E+02  0.15487E+01 -0.14303E+01  0.98198E+01      982.00
  0.31515E+00  0.65544E+02    0.16250E+00  0.16250E+00 -0.32500E+00  0.00000E+00  0.00000E+00  0.00000E+00    0.19243E+02  0.22781E+02 -0.42023E+02  0.16229E+01 -0.14949E+01  0.99776E+01      982.00
  0.33919E+00  0.65778E+02    0.17500E+00  0.17500E+00 -0.35000E+00  0.00000E+00  0.00000E+00  0.00000E+00    0.19310E+02  0.22826E+02 -0.42137E+02  0.16913E+01 -0.15590E+01  0.10110E+02      982.00
  0.36322E+00  0.66019E+02    0.18750E+00  0.18750E+00 -0.37500E+00  0.00000E+00  0.00000E+00  0.00000E+00    0.19382E+02  0.22872E+02 -0.42253E+02  0.17602E+01 -0.16266E+01  0.10248E+02      982.00
  0.38722E+00  0.66250E+02    0.20000E+00  0.20000E+00 -0.40000E+00  0.00000E+00  0.00000E+00  0.00000E+00    0.19460E+02  0.22905E+02 -0.42365E+02  0.18249E+01 -0.16918E+01  0.10382E+02      982.00
  0.41120E+00  0.66473E+02    0.21250E+00  0.21250E+00 -0.42500E+00  0.00000E+00  0.00000E+00  0.00000E+00    0.19543E+02  0.22930E+02 -0.42473E+02  0.18875E+01 -0.17567E+01  0.10507E+02      982.00
  0.43516E+00  0.66685E+02    0.22500E+00  0.22500E+00 -0.45000E+00  0.00000E+00  0.00000E+00  0.00000E+00    0.19626E+02  0.22950E+02 -0.42576E+02  0.19475E+01 -0.18216E+01  0.10625E+02      982.00
  0.45910E+00  0.66879E+02    0.23750E+00  0.23750E+00 -0.47500E+00  0.00000E+00  0.00000E+00  0.00000E+00    0.19709E+02  0.22961E+02 -0.42670E+02  0.20053E+01 -0.18857E+01  0.10732E+02      982.00
  0.48303E+00  0.67052E+02    0.25000E+00  0.25000E+00 -0.50000E+00  0.00000E+00  0.00000E+00  0.00000E+00    0.19787E+02  0.22964E+02 -0.42751E+02  0.20606E+01 -0.19482E+01  0.10833E+02      982.00
  0.50694E+00  0.67220E+02    0.26250E+00  0.26250E+00 -0.52500E+00  0.00000E+00  0.00000E+00  0.00000E+00    0.19867E+02  0.22964E+02 -0.42831E+02  0.21147E+01 -0.20110E+01  0.10926E+02      982.00
  0.53083E+00  0.67367E+02    0.27500E+00  0.27500E+00 -0.55000E+00  0.00000E+00  0.00000E+00  0.00000E+00    0.19941E+02  0.22958E+02 -0.42899E+02  0.21671E+01 -0.20727E+01  0.11013E+02      982.00
  0.55471E+00  0.67500E+02    0.28750E+00  0.28750E+00 -0.57500E+00  0.00000E+00  0.00000E+00  0.00000E+00    0.20012E+02  0.22946E+02 -0.42958E+02  0.22168E+01 -0.21333E+01  0.11094E+02      982.00
  0.57857E+00  0.67630E+02    0.30000E+00  0.30000E+00 -0.60000E+00  0.00000E+00  0.00000E+00  0.00000E+00    0.20083E+02  0.22934E+02 -0.43017E+02  0.22662E+01 -0.21932E+01  0.11170E+02      982.00
  0.60243E+00  0.67739E+02    0.31250E+00  0.31250E+00 -0.62500E+00  0.00000E+00  0.00000E+00  0.00000E+00    0.20157E+02  0.22908E+02 -0.43065E+02  0.23147E+01 -0.22523E+01  0.11236E+02      982.00
  0.62627E+00  0.67847E+02    0.32500E+00  0.32500E+00 -0.65000E+00  0.00000E+00  0.00000E+00  0.00000E+00    0.20222E+02  0.22890E+02 -0.43111E+02  0.23611E+01 -0.23106E+01  0.11303E+02      982.00
  0.65010E+00  0.67941E+02    0.33750E+00  0.33750E+00 -0.67500E+00  0.00000E+00  0.00000E+00  0.00000E+00    0.20280E+02  0.22869E+02 -0.43149E+02  0.24062E+01 -0.23676E+01  0.11367E+02      982.00
  0.67391E+00  0.68019E+02    0.35000E+00  0.35000E+00 -0.70000E+00  0.00000E+00  0.00000E+00  0.00000E+00    0.20333E+02  0.22845E+02 -0.43177E+02  0.24501E+01 -0.24241E+01  0.11424E+02      982.00
  0.69772E+00  0.68097E+02    0.36250E+00  0.36250E+00 -0.72500E+00  0.00000E+00  0.00000E+00  0.00000E+00    0.20384E+02  0.22822E+02 -0.43207E+02  0.24931E+01 -0.24796E+01  0.11478E+02      982.00
  0.72151E+00  0.68171E+02    0.37500E+00  0.37500E+00 -0.75000E+00  0.00000E+00  0.00000E+00  0.00000E+00    0.20434E+02  0.22800E+02 -0.43234E+02  0.25353E+01 -0.25336E+01  0.11531E+02      982.00
  0.74529E+00  0.68231E+02    0.38750E+00  0.38750E+00 -0.77500E+00  0.00000E+00  0.00000E+00  0.00000E+00    0.20477E+02  0.22774E+02 -0.43251E+02  0.25765E+01 -0.25876E+01  0.11583E+02      982.00
  0.76906E+00  0.68289E+02    0.40000E+00  0.40000E+00 -0.80000E+00  0.00000E+00  0.00000E+00  0.00000E+00    0.20530E+02  0.22741E+02 -0.43270E+02  0.26231E+01 -0.26466E+01  0.11624E+02      982.00
  0.79282E+00  0.68341E+02    0.41250E+00  0.41250E+00 -0.82500E+00  0.00000E+00  0.00000E+00  0.00000E+00    0.20569E+02  0.22715E+02 -0.43284E+02  0.26625E+01 -0.26988E+01  0.11671E+02      982.00
  0.81658E+00  0.68388E+02    0.42500E+00  0.42500E+00 -0.85000E+00  0.00000E+00  0.00000E+00  0.00000E+00    0.20604E+02  0.22690E+02 -0.43294E+02  0.27016E+01 -0.27502E+01  0.11715E+02      982.00
  0.84032E+00  0.68428E+02    0.43750E+00  0.43750E+00 -0.87500E+00  0.00000E+00  0.00000E+00  0.00000E+00    0.20635E+02  0.22665E+02 -0.43300E+02  0.27397E+01 -0.27996E+01  0.11758E+02      982.00
  0.86404E+00  0.68464E+02    0.45000E+00  0.45000E+00 -0.90000E+00  0.00000E+00  0.00000E+00  0.00000E+00    0.20664E+02  0.22640E+02 -0.43304E+02  0.27771E+01 -0.28486E+01  0.11798E+02      982.00
  0.88776E+00  0.68495E+02    0.46250E+00  0.46250E+00 -0.92500E+00  0.00000E+00  0.00000E+00  0.00000E+00    0.20690E+02  0.22616E+02 -0.43306E+02  0.28134E+01 -0.28963E+01  0.11836E+02      982.00
  0.91147E+00  0.68528E+02    0.47500E+00  0.47500E+00 -0.95000E+00  0.00000E+00  0.00000E+00  0.00000E+00    0.20716E+02  0.22593E+02 -0.43309E+02  0.28491E+01 -0.29436E+01  0.11874E+02      982.00
  0.93517E+00  0.68515E+02    0.48750E+00  0.48750E+00 -0.97500E+00  0.00000E+00  0.00000E+00  0.00000E+00    0.20722E+02  0.22562E+02 -0.43284E+02  0.28751E+01 -0.29772E+01  0.11903E+02      982.00
  0.95886E+00  0.68507E+02    0.50000E+00  0.50000E+00 -0.10000E+01  0.00000E+00  0.00000E+00  0.00000E+00    0.20729E+02  0.22536E+02 -0.43265E+02  0.28979E+01 -0.30079E+01  0.11927E+02      982.00
