          Evm          Svm            E11          E22          E33          E23          E13          E12         SDEV11       SDEV22       SDEV33       SDEV23       SDEV13       SDEV12      TEMP
  0.00000E+00  0.63633E+02    0.00000E+00  0.00000E+00  0.00000E+00  0.00000E+00  0.00000E+00  0.00000E+00    0.21118E+02  0.20277E+02 -0.41395E+02 -0.14647E+01  0.11050E+01  0.78117E+01      982.00
  0.24395E-01  0.63634E+02    0.12500E-01  0.12500E-01 -0.25000E-01  0.00000E+00  0.00000E+00  0.00000E+00    0.20727E+02  0.20657E+02 -0.41384E+02 -0.13563E+01  0.10117E+01  0.79007E+01      982.00
  0.48783E-01  0.63661E+02    0.25000E-01  0.25000E-01 -0.50000E-01  0.00000E+00  0.00000E+00  0.00000E+00    0.20478E+02  0.20906E+02 -0.41383E+02 -0.12136E+01  0.92700E+00  0.80068E+01      982.00
  0.73160E-01  0.63719E+02    0.37500E-01  0.37500E-01 -0.75000E-01  0.00000E+00  0.00000E+00  0.00000E+00    0.20298E+02  0.21098E+02 -0.41396E+02 -0.10709E+01  0.83642E+00  0.81335E+01      982.00
  0.97522E-01  0.63813E+02    0.50000E-01  0.50000E-01 -0.10000E+00  0.00000E+00  0.00000E+00  0.00000E+00    0.20183E+02  0.21244E+02 -0.41427E+02 -0.93078E+00  0.74406E+00  0.82792E+01      982.00
  0.12187E+00  0.63945E+02    0.62500E-01  0.62500E-01 -0.12500E+00  0.00000E+00  0.00000E+00  0.00000E+00    0.20109E+02  0.21369E+02 -0.41477E+02 -0.80055E+00  0.65019E+00  0.84404E+01      982.00
  0.14619E+00  0.64110E+02    0.75000E-01  0.75000E-01 -0.15000E+00  0.00000E+00  0.00000E+00  0.00000E+00    0.20077E+02  0.21469E+02 -0.41546E+02 -0.67500E+00  0.55646E+00  0.86150E+01      982.00
  0.17049E+00  0.64309E+02    0.87500E-01  0.87500E-01 -0.17500E+00  0.00000E+00  0.00000E+00  0.00000E+00    0.20070E+02  0.21561E+02 -0.41630E+02 -0.55399E+00  0.46007E+00  0.88136E+01      982.00
  0.19477E+00  0.64525E+02    0.10000E+00  0.10000E+00 -0.20000E+00  0.00000E+00  0.00000E+00  0.00000E+00    0.20095E+02  0.21634E+02 -0.41729E+02 -0.43920E+00  0.36695E+00  0.89955E+01      982.00
  0.21902E+00  0.64761E+02    0.11250E+00  0.11250E+00 -0.22500E+00  0.00000E+00  0.00000E+00  0.00000E+00    0.20139E+02  0.21702E+02 -0.41841E+02 -0.32993E+00  0.27519E+00  0.91755E+01      982.00
  0.24325E+00  0.65017E+02    0.12500E+00  0.12500E+00 -0.25000E+00  0.00000E+00  0.00000E+00  0.00000E+00    0.20195E+02  0.21767E+02 -0.41963E+02 -0.22701E+00  0.18579E+00  0.93650E+01      982.00
  0.26745E+00  0.65276E+02    0.13750E+00  0.13750E+00 -0.27500E+00  0.00000E+00  0.00000E+00  0.00000E+00    0.20264E+02  0.21828E+02 -0.42092E+02 -0.12793E+00  0.97414E-01  0.95318E+01      982.00
  0.29163E+00  0.65538E+02    0.15000E+00  0.15000E+00 -0.30000E+00  0.00000E+00  0.00000E+00  0.00000E+00    0.20340E+02  0.21886E+02 -0.42226E+02 -0.33037E-01  0.10783E-01  0.96880E+01      982.00
  0.31579E+00  0.65800E+02    0.16250E+00  0.16250E+00 -0.32500E+00  0.00000E+00  0.00000E+00  0.00000E+00    0.20420E+02  0.21941E+02 -0.42362E+02  0.57302E-01 -0.73736E-01  0.98357E+01      982.00
  0.33994E+00  0.66042E+02    0.17500E+00  0.17500E+00 -0.35000E+00  0.00000E+00  0.00000E+00  0.00000E+00    0.20495E+02  0.21994E+02 -0.42490E+02  0.13740E+00 -0.15206E+00  0.99601E+01      982.00
  0.36406E+00  0.66292E+02    0.18750E+00  0.18750E+00 -0.37500E+00  0.00000E+00  0.00000E+00  0.00000E+00    0.20577E+02  0.22044E+02 -0.42621E+02  0.22008E+00 -0.23287E+00  0.10089E+02      982.00
  0.38817E+00  0.66531E+02    0.20000E+00  0.20000E+00 -0.40000E+00  0.00000E+00  0.00000E+00  0.00000E+00    0.20659E+02  0.22089E+02 -0.42748E+02  0.30005E+00 -0.31184E+00  0.10208E+02      982.00
  0.41227E+00  0.66758E+02    0.21250E+00  0.21250E+00 -0.42500E+00  0.00000E+00  0.00000E+00  0.00000E+00    0.20741E+02  0.22129E+02 -0.42869E+02  0.37758E+00 -0.38930E+00  0.10317E+02      982.00
  0.43635E+00  0.66971E+02    0.22500E+00  0.22500E+00 -0.45000E+00  0.00000E+00  0.00000E+00  0.00000E+00    0.20819E+02  0.22164E+02 -0.42983E+02  0.45304E+00 -0.46551E+00  0.10416E+02      982.00
  0.46042E+00  0.67170E+02    0.23750E+00  0.23750E+00 -0.47500E+00  0.00000E+00  0.00000E+00  0.00000E+00    0.20895E+02  0.22195E+02 -0.43090E+02  0.52677E+00 -0.54070E+00  0.10507E+02      982.00
  0.48447E+00  0.67354E+02    0.25000E+00  0.25000E+00 -0.50000E+00  0.00000E+00  0.00000E+00  0.00000E+00    0.20967E+02  0.22222E+02 -0.43188E+02  0.59911E+00 -0.61508E+00  0.10589E+02      982.00
  0.50852E+00  0.67524E+02    0.26250E+00  0.26250E+00 -0.52500E+00  0.00000E+00  0.00000E+00  0.00000E+00    0.21034E+02  0.22244E+02 -0.43279E+02  0.67037E+00 -0.68888E+00  0.10665E+02      982.00
  0.53255E+00  0.67680E+02    0.27500E+00  0.27500E+00 -0.55000E+00  0.00000E+00  0.00000E+00  0.00000E+00    0.21098E+02  0.22263E+02 -0.43361E+02  0.74080E+00 -0.76226E+00  0.10735E+02      982.00
  0.55658E+00  0.67822E+02    0.28750E+00  0.28750E+00 -0.57500E+00  0.00000E+00  0.00000E+00  0.00000E+00    0.21165E+02  0.22272E+02 -0.43437E+02  0.81856E+00 -0.84204E+00  0.10795E+02      982.00
  0.58060E+00  0.67952E+02    0.30000E+00  0.30000E+00 -0.60000E+00  0.00000E+00  0.00000E+00  0.00000E+00    0.21221E+02  0.22283E+02 -0.43504E+02  0.88839E+00 -0.91529E+00  0.10853E+02      982.00
  0.60460E+00  0.68069E+02    0.31250E+00  0.31250E+00 -0.62500E+00  0.00000E+00  0.00000E+00  0.00000E+00    0.21272E+02  0.22292E+02 -0.43564E+02  0.95771E+00 -0.98864E+00  0.10906E+02      982.00
  0.62860E+00  0.68176E+02    0.32500E+00  0.32500E+00 -0.65000E+00  0.00000E+00  0.00000E+00  0.00000E+00    0.21319E+02  0.22299E+02 -0.43617E+02  0.10268E+01 -0.10621E+01  0.10957E+02      982.00
  0.65260E+00  0.68272E+02    0.33750E+00  0.33750E+00 -0.67500E+00  0.00000E+00  0.00000E+00  0.00000E+00    0.21361E+02  0.22303E+02 -0.43664E+02  0.10959E+01 -0.11357E+01  0.11004E+02      982.00
  0.67658E+00  0.68360E+02    0.35000E+00  0.35000E+00 -0.70000E+00  0.00000E+00  0.00000E+00  0.00000E+00    0.21399E+02  0.22305E+02 -0.43705E+02  0.11650E+01 -0.12095E+01  0.11049E+02      982.00
  0.70055E+00  0.68438E+02    0.36250E+00  0.36250E+00 -0.72500E+00  0.00000E+00  0.00000E+00  0.00000E+00    0.21434E+02  0.22306E+02 -0.43740E+02  0.12340E+01 -0.12835E+01  0.11091E+02      982.00
  0.72452E+00  0.68508E+02    0.37500E+00  0.37500E+00 -0.75000E+00  0.00000E+00  0.00000E+00  0.00000E+00    0.21466E+02  0.22304E+02 -0.43769E+02  0.13031E+01 -0.13577E+01  0.11131E+02      982.00
  0.74848E+00  0.68571E+02    0.38750E+00  0.38750E+00 -0.77500E+00  0.00000E+00  0.00000E+00  0.00000E+00    0.21494E+02  0.22301E+02 -0.43794E+02  0.13722E+01 -0.14320E+01  0.11171E+02      982.00
  0.77243E+00  0.68628E+02    0.40000E+00  0.40000E+00 -0.80000E+00  0.00000E+00  0.00000E+00  0.00000E+00    0.21518E+02  0.22296E+02 -0.43815E+02  0.14413E+01 -0.15063E+01  0.11209E+02      982.00
  0.79637E+00  0.68678E+02    0.41250E+00  0.41250E+00 -0.82500E+00  0.00000E+00  0.00000E+00  0.00000E+00    0.21540E+02  0.22291E+02 -0.43831E+02  0.15102E+01 -0.15806E+01  0.11246E+02      982.00
  0.82030E+00  0.68723E+02    0.42500E+00  0.42500E+00 -0.85000E+00  0.00000E+00  0.00000E+00  0.00000E+00    0.21559E+02  0.22284E+02 -0.43843E+02  0.15791E+01 -0.16549E+01  0.11282E+02      982.00
  0.84423E+00  0.68763E+02    0.43750E+00  0.43750E+00 -0.87500E+00  0.00000E+00  0.00000E+00  0.00000E+00    0.21575E+02  0.22276E+02 -0.43851E+02  0.16477E+01 -0.17289E+01  0.11318E+02      982.00
  0.86814E+00  0.68803E+02    0.45000E+00  0.45000E+00 -0.90000E+00  0.00000E+00  0.00000E+00  0.00000E+00    0.21585E+02  0.22272E+02 -0.43857E+02  0.17037E+01 -0.17898E+01  0.11366E+02      982.00
  0.89205E+00  0.68834E+02    0.46250E+00  0.46250E+00 -0.92500E+00  0.00000E+00  0.00000E+00  0.00000E+00    0.21596E+02  0.22262E+02 -0.43858E+02  0.17711E+01 -0.18627E+01  0.11401E+02      982.00
  0.91594E+00  0.68861E+02    0.47500E+00  0.47500E+00 -0.95000E+00  0.00000E+00  0.00000E+00  0.00000E+00    0.21606E+02  0.22251E+02 -0.43857E+02  0.18382E+01 -0.19353E+01  0.11436E+02      982.00
  0.93982E+00  0.68841E+02    0.48750E+00  0.48750E+00 -0.97500E+00  0.00000E+00  0.00000E+00  0.00000E+00    0.21597E+02  0.22230E+02 -0.43827E+02  0.18991E+01 -0.19999E+01  0.11461E+02      982.00
  0.96370E+00  0.68821E+02    0.50000E+00  0.50000E+00 -0.10000E+01  0.00000E+00  0.00000E+00  0.00000E+00    0.21589E+02  0.22208E+02 -0.43797E+02  0.19595E+01 -0.20644E+01  0.11486E+02      982.00
