          Evm          Svm            E11          E22          E33          E23          E13          E12         SDEV11       SDEV22       SDEV33       SDEV23       SDEV13       SDEV12      TEMP
  0.00000E+00  0.52597E+02    0.00000E+00  0.00000E+00  0.00000E+00  0.00000E+00  0.00000E+00  0.00000E+00    0.12192E+02  0.21678E+02 -0.33870E+02 -0.36808E+01  0.50570E+01  0.34901E+00      982.00
  0.24149E-01  0.52663E+02    0.12500E-01  0.12500E-01 -0.25000E-01  0.00000E+00  0.00000E+00  0.00000E+00    0.12108E+02  0.21801E+02 -0.33909E+02 -0.34208E+01  0.51744E+01  0.41349E+00      982.00
  0.48294E-01  0.52797E+02    0.25000E-01  0.25000E-01 -0.50000E-01  0.00000E+00  0.00000E+00  0.00000E+00    0.12040E+02  0.21947E+02 -0.33987E+02 -0.32090E+01  0.52682E+01  0.46611E+00      982.00
  0.72434E-01  0.53003E+02    0.37500E-01  0.37500E-01 -0.75000E-01  0.00000E+00  0.00000E+00  0.00000E+00    0.11983E+02  0.22123E+02 -0.34107E+02 -0.30259E+01  0.53722E+01  0.51550E+00      982.00
  0.96565E-01  0.53299E+02    0.50000E-01  0.50000E-01 -0.10000E+00  0.00000E+00  0.00000E+00  0.00000E+00    0.11942E+02  0.22335E+02 -0.34278E+02 -0.28681E+01  0.54909E+01  0.56168E+00      982.00
  0.12068E+00  0.53693E+02    0.62500E-01  0.62500E-01 -0.12500E+00  0.00000E+00  0.00000E+00  0.00000E+00    0.11914E+02  0.22590E+02 -0.34504E+02 -0.27322E+01  0.56351E+01  0.60683E+00      982.00
  0.14478E+00  0.54157E+02    0.75000E-01  0.75000E-01 -0.15000E+00  0.00000E+00  0.00000E+00  0.00000E+00    0.11903E+02  0.22869E+02 -0.34772E+02 -0.26160E+01  0.57902E+01  0.64722E+00      982.00
  0.16886E+00  0.54694E+02    0.87500E-01  0.87500E-01 -0.17500E+00  0.00000E+00  0.00000E+00  0.00000E+00    0.11908E+02  0.23174E+02 -0.35082E+02 -0.25152E+01  0.59637E+01  0.68550E+00      982.00
  0.19291E+00  0.55284E+02    0.10000E+00  0.10000E+00 -0.20000E+00  0.00000E+00  0.00000E+00  0.00000E+00    0.11928E+02  0.23495E+02 -0.35424E+02 -0.24239E+01  0.61469E+01  0.72276E+00      982.00
  0.21694E+00  0.55917E+02    0.11250E+00  0.11250E+00 -0.22500E+00  0.00000E+00  0.00000E+00  0.00000E+00    0.11964E+02  0.23828E+02 -0.35792E+02 -0.23346E+01  0.63415E+01  0.76211E+00      982.00
  0.24094E+00  0.56566E+02    0.12500E+00  0.12500E+00 -0.25000E+00  0.00000E+00  0.00000E+00  0.00000E+00    0.12014E+02  0.24157E+02 -0.36172E+02 -0.22510E+01  0.65339E+01  0.80017E+00      982.00
  0.26492E+00  0.57231E+02    0.13750E+00  0.13750E+00 -0.27500E+00  0.00000E+00  0.00000E+00  0.00000E+00    0.12079E+02  0.24486E+02 -0.36564E+02 -0.21677E+01  0.67245E+01  0.84019E+00      982.00
  0.28888E+00  0.57879E+02    0.15000E+00  0.15000E+00 -0.30000E+00  0.00000E+00  0.00000E+00  0.00000E+00    0.12148E+02  0.24798E+02 -0.36946E+02 -0.20836E+01  0.69103E+01  0.88176E+00      982.00
  0.31282E+00  0.58520E+02    0.16250E+00  0.16250E+00 -0.32500E+00  0.00000E+00  0.00000E+00  0.00000E+00    0.12230E+02  0.25099E+02 -0.37329E+02 -0.19962E+01  0.70844E+01  0.92524E+00      982.00
  0.33674E+00  0.59148E+02    0.17500E+00  0.17500E+00 -0.35000E+00  0.00000E+00  0.00000E+00  0.00000E+00    0.12320E+02  0.25387E+02 -0.37707E+02 -0.19073E+01  0.72486E+01  0.96961E+00      982.00
  0.36065E+00  0.59742E+02    0.18750E+00  0.18750E+00 -0.37500E+00  0.00000E+00  0.00000E+00  0.00000E+00    0.12413E+02  0.25654E+02 -0.38066E+02 -0.18115E+01  0.73992E+01  0.10179E+01      982.00
  0.38454E+00  0.60315E+02    0.20000E+00  0.20000E+00 -0.40000E+00  0.00000E+00  0.00000E+00  0.00000E+00    0.12509E+02  0.25908E+02 -0.38417E+02 -0.17197E+01  0.75359E+01  0.10624E+01      982.00
  0.40842E+00  0.60851E+02    0.21250E+00  0.21250E+00 -0.42500E+00  0.00000E+00  0.00000E+00  0.00000E+00    0.12606E+02  0.26142E+02 -0.38748E+02 -0.16291E+01  0.76537E+01  0.11047E+01      982.00
  0.43230E+00  0.61361E+02    0.22500E+00  0.22500E+00 -0.45000E+00  0.00000E+00  0.00000E+00  0.00000E+00    0.12703E+02  0.26361E+02 -0.39064E+02 -0.15369E+01  0.77605E+01  0.11449E+01      982.00
  0.45618E+00  0.61834E+02    0.23750E+00  0.23750E+00 -0.47500E+00  0.00000E+00  0.00000E+00  0.00000E+00    0.12799E+02  0.26562E+02 -0.39361E+02 -0.14405E+01  0.78535E+01  0.11861E+01      982.00
  0.48005E+00  0.62278E+02    0.25000E+00  0.25000E+00 -0.50000E+00  0.00000E+00  0.00000E+00  0.00000E+00    0.12891E+02  0.26750E+02 -0.39641E+02 -0.13508E+01  0.79340E+01  0.12190E+01      982.00
  0.50392E+00  0.62694E+02    0.26250E+00  0.26250E+00 -0.52500E+00  0.00000E+00  0.00000E+00  0.00000E+00    0.12983E+02  0.26924E+02 -0.39907E+02 -0.12631E+01  0.80015E+01  0.12475E+01      982.00
  0.52779E+00  0.63082E+02    0.27500E+00  0.27500E+00 -0.55000E+00  0.00000E+00  0.00000E+00  0.00000E+00    0.13069E+02  0.27088E+02 -0.40157E+02 -0.11777E+01  0.80575E+01  0.12708E+01      982.00
  0.55166E+00  0.63437E+02    0.28750E+00  0.28750E+00 -0.57500E+00  0.00000E+00  0.00000E+00  0.00000E+00    0.13152E+02  0.27234E+02 -0.40386E+02 -0.10892E+01  0.81058E+01  0.12938E+01      982.00
  0.57553E+00  0.63776E+02    0.30000E+00  0.30000E+00 -0.60000E+00  0.00000E+00  0.00000E+00  0.00000E+00    0.13231E+02  0.27376E+02 -0.40606E+02 -0.10090E+01  0.81470E+01  0.13070E+01      982.00
  0.59941E+00  0.64085E+02    0.31250E+00  0.31250E+00 -0.62500E+00  0.00000E+00  0.00000E+00  0.00000E+00    0.13305E+02  0.27506E+02 -0.40810E+02 -0.93161E+00  0.81757E+01  0.13148E+01      982.00
  0.62329E+00  0.64377E+02    0.32500E+00  0.32500E+00 -0.65000E+00  0.00000E+00  0.00000E+00  0.00000E+00    0.13376E+02  0.27628E+02 -0.41003E+02 -0.85675E+00  0.82014E+01  0.13171E+01      982.00
  0.64717E+00  0.64650E+02    0.33750E+00  0.33750E+00 -0.67500E+00  0.00000E+00  0.00000E+00  0.00000E+00    0.13443E+02  0.27743E+02 -0.41185E+02 -0.78406E+00  0.82188E+01  0.13146E+01      982.00
  0.67106E+00  0.64902E+02    0.35000E+00  0.35000E+00 -0.70000E+00  0.00000E+00  0.00000E+00  0.00000E+00    0.13507E+02  0.27848E+02 -0.41356E+02 -0.71458E+00  0.82314E+01  0.13071E+01      982.00
  0.69496E+00  0.65136E+02    0.36250E+00  0.36250E+00 -0.72500E+00  0.00000E+00  0.00000E+00  0.00000E+00    0.13566E+02  0.27947E+02 -0.41513E+02 -0.64677E+00  0.82427E+01  0.12945E+01      982.00
  0.71886E+00  0.65360E+02    0.37500E+00  0.37500E+00 -0.75000E+00  0.00000E+00  0.00000E+00  0.00000E+00    0.13622E+02  0.28043E+02 -0.41665E+02 -0.58137E+00  0.82494E+01  0.12775E+01      982.00
  0.74276E+00  0.65556E+02    0.38750E+00  0.38750E+00 -0.77500E+00  0.00000E+00  0.00000E+00  0.00000E+00    0.13672E+02  0.28126E+02 -0.41798E+02 -0.51199E+00  0.82541E+01  0.12608E+01      982.00
  0.76667E+00  0.65751E+02    0.40000E+00  0.40000E+00 -0.80000E+00  0.00000E+00  0.00000E+00  0.00000E+00    0.13722E+02  0.28211E+02 -0.41932E+02 -0.45563E+00  0.82549E+01  0.12310E+01      982.00
  0.79059E+00  0.65919E+02    0.41250E+00  0.41250E+00 -0.82500E+00  0.00000E+00  0.00000E+00  0.00000E+00    0.13765E+02  0.28283E+02 -0.42048E+02 -0.39064E+00  0.82531E+01  0.12064E+01      982.00
  0.81451E+00  0.66087E+02    0.42500E+00  0.42500E+00 -0.85000E+00  0.00000E+00  0.00000E+00  0.00000E+00    0.13808E+02  0.28356E+02 -0.42165E+02 -0.33727E+00  0.82499E+01  0.11688E+01      982.00
  0.83843E+00  0.66244E+02    0.43750E+00  0.43750E+00 -0.87500E+00  0.00000E+00  0.00000E+00  0.00000E+00    0.13849E+02  0.28424E+02 -0.42273E+02 -0.28088E+00  0.82477E+01  0.11324E+01      982.00
  0.86236E+00  0.66297E+02    0.45000E+00  0.45000E+00 -0.90000E+00  0.00000E+00  0.00000E+00  0.00000E+00    0.13876E+02  0.28454E+02 -0.42329E+02 -0.23337E+00  0.81785E+01  0.10929E+01      982.00
  0.88631E+00  0.66363E+02    0.46250E+00  0.46250E+00 -0.92500E+00  0.00000E+00  0.00000E+00  0.00000E+00    0.13902E+02  0.28487E+02 -0.42389E+02 -0.18330E+00  0.81269E+01  0.10519E+01      982.00
  0.91026E+00  0.66425E+02    0.47500E+00  0.47500E+00 -0.95000E+00  0.00000E+00  0.00000E+00  0.00000E+00    0.13926E+02  0.28519E+02 -0.42445E+02 -0.13418E+00  0.80791E+01  0.10091E+01      982.00
  0.93422E+00  0.66483E+02    0.48750E+00  0.48750E+00 -0.97500E+00  0.00000E+00  0.00000E+00  0.00000E+00    0.13949E+02  0.28550E+02 -0.42498E+02 -0.85725E-01  0.80340E+01  0.96310E+00      982.00
  0.95819E+00  0.66529E+02    0.50000E+00  0.50000E+00 -0.10000E+01  0.00000E+00  0.00000E+00  0.00000E+00    0.13968E+02  0.28574E+02 -0.42542E+02 -0.38982E-01  0.79901E+01  0.91657E+00      982.00
