          Evm          Svm            E11          E22          E33          E23          E13          E12         SDEV11       SDEV22       SDEV33       SDEV23       SDEV13       SDEV12      TEMP
  0.00000E+00  0.64797E+02    0.00000E+00  0.00000E+00  0.00000E+00  0.00000E+00  0.00000E+00  0.00000E+00    0.18274E+02  0.23787E+02 -0.42062E+02  0.19080E+00  0.52107E+01 -0.61545E+01      982.00
  0.24342E-01  0.64843E+02    0.12500E-01  0.12500E-01 -0.25000E-01  0.00000E+00  0.00000E+00  0.00000E+00    0.17888E+02  0.24210E+02 -0.42098E+02  0.23674E+00  0.49371E+01 -0.61560E+01      982.00
  0.48689E-01  0.64977E+02    0.25000E-01  0.25000E-01 -0.50000E-01  0.00000E+00  0.00000E+00  0.00000E+00    0.17591E+02  0.24606E+02 -0.42197E+02  0.29974E+00  0.47156E+01 -0.61038E+01      982.00
  0.73042E-01  0.65050E+02    0.37500E-01  0.37500E-01 -0.75000E-01  0.00000E+00  0.00000E+00  0.00000E+00    0.17372E+02  0.24899E+02 -0.42272E+02  0.33204E+00  0.45188E+01 -0.59686E+01      982.00
  0.97411E-01  0.64984E+02    0.50000E-01  0.50000E-01 -0.10000E+00  0.00000E+00  0.00000E+00  0.00000E+00    0.17226E+02  0.25049E+02 -0.42276E+02  0.38928E+00  0.43098E+01 -0.57626E+01      982.00
  0.12181E+00  0.64929E+02    0.62500E-01  0.62500E-01 -0.12500E+00  0.00000E+00  0.00000E+00  0.00000E+00    0.17091E+02  0.25196E+02 -0.42287E+02  0.57057E+00  0.40710E+01 -0.55461E+01      982.00
  0.14623E+00  0.64945E+02    0.75000E-01  0.75000E-01 -0.15000E+00  0.00000E+00  0.00000E+00  0.00000E+00    0.16965E+02  0.25369E+02 -0.42334E+02  0.84354E+00  0.38447E+01 -0.53569E+01      982.00
  0.17067E+00  0.65042E+02    0.87500E-01  0.87500E-01 -0.17500E+00  0.00000E+00  0.00000E+00  0.00000E+00    0.16843E+02  0.25573E+02 -0.42416E+02  0.11462E+01  0.36452E+01 -0.52126E+01      982.00
  0.19513E+00  0.65192E+02    0.10000E+00  0.10000E+00 -0.20000E+00  0.00000E+00  0.00000E+00  0.00000E+00    0.16722E+02  0.25795E+02 -0.42517E+02  0.14325E+01  0.34746E+01 -0.51143E+01      982.00
  0.21959E+00  0.65380E+02    0.11250E+00  0.11250E+00 -0.22500E+00  0.00000E+00  0.00000E+00  0.00000E+00    0.16609E+02  0.26023E+02 -0.42632E+02  0.16792E+01  0.33361E+01 -0.50610E+01      982.00
  0.24404E+00  0.65592E+02    0.12500E+00  0.12500E+00 -0.25000E+00  0.00000E+00  0.00000E+00  0.00000E+00    0.16491E+02  0.26261E+02 -0.42752E+02  0.18825E+01  0.32188E+01 -0.50501E+01      982.00
  0.26848E+00  0.65833E+02    0.13750E+00  0.13750E+00 -0.27500E+00  0.00000E+00  0.00000E+00  0.00000E+00    0.16385E+02  0.26501E+02 -0.42886E+02  0.20415E+01  0.31234E+01 -0.50718E+01      982.00
  0.29291E+00  0.66091E+02    0.15000E+00  0.15000E+00 -0.30000E+00  0.00000E+00  0.00000E+00  0.00000E+00    0.16275E+02  0.26751E+02 -0.43026E+02  0.21639E+01  0.30401E+01 -0.51194E+01      982.00
  0.31732E+00  0.66340E+02    0.16250E+00  0.16250E+00 -0.32500E+00  0.00000E+00  0.00000E+00  0.00000E+00    0.16172E+02  0.26986E+02 -0.43157E+02  0.22546E+01  0.29735E+01 -0.51874E+01      982.00
  0.34172E+00  0.66602E+02    0.17500E+00  0.17500E+00 -0.35000E+00  0.00000E+00  0.00000E+00  0.00000E+00    0.16071E+02  0.27225E+02 -0.43296E+02  0.23199E+01  0.29123E+01 -0.52649E+01      982.00
  0.36610E+00  0.66847E+02    0.18750E+00  0.18750E+00 -0.37500E+00  0.00000E+00  0.00000E+00  0.00000E+00    0.15979E+02  0.27444E+02 -0.43424E+02  0.23650E+01  0.28656E+01 -0.53515E+01      982.00
  0.39046E+00  0.67094E+02    0.20000E+00  0.20000E+00 -0.40000E+00  0.00000E+00  0.00000E+00  0.00000E+00    0.15890E+02  0.27662E+02 -0.43552E+02  0.23960E+01  0.28200E+01 -0.54405E+01      982.00
  0.41480E+00  0.67323E+02    0.21250E+00  0.21250E+00 -0.42500E+00  0.00000E+00  0.00000E+00  0.00000E+00    0.15809E+02  0.27861E+02 -0.43670E+02  0.24152E+01  0.27872E+01 -0.55314E+01      982.00
  0.43912E+00  0.67543E+02    0.22500E+00  0.22500E+00 -0.45000E+00  0.00000E+00  0.00000E+00  0.00000E+00    0.15734E+02  0.28048E+02 -0.43782E+02  0.24261E+01  0.27584E+01 -0.56211E+01      982.00
  0.46343E+00  0.67740E+02    0.23750E+00  0.23750E+00 -0.47500E+00  0.00000E+00  0.00000E+00  0.00000E+00    0.15654E+02  0.28227E+02 -0.43881E+02  0.24316E+01  0.27243E+01 -0.57044E+01      982.00
  0.48772E+00  0.67937E+02    0.25000E+00  0.25000E+00 -0.50000E+00  0.00000E+00  0.00000E+00  0.00000E+00    0.15590E+02  0.28392E+02 -0.43981E+02  0.24319E+01  0.27030E+01 -0.57872E+01      982.00
  0.51200E+00  0.68108E+02    0.26250E+00  0.26250E+00 -0.52500E+00  0.00000E+00  0.00000E+00  0.00000E+00    0.15524E+02  0.28542E+02 -0.44066E+02  0.24297E+01  0.26843E+01 -0.58662E+01      982.00
  0.53626E+00  0.68280E+02    0.27500E+00  0.27500E+00 -0.55000E+00  0.00000E+00  0.00000E+00  0.00000E+00    0.15460E+02  0.28691E+02 -0.44151E+02  0.24264E+01  0.26612E+01 -0.59432E+01      982.00
  0.56051E+00  0.68421E+02    0.28750E+00  0.28750E+00 -0.57500E+00  0.00000E+00  0.00000E+00  0.00000E+00    0.15407E+02  0.28813E+02 -0.44221E+02  0.24206E+01  0.26451E+01 -0.60079E+01      982.00
  0.58475E+00  0.68564E+02    0.30000E+00  0.30000E+00 -0.60000E+00  0.00000E+00  0.00000E+00  0.00000E+00    0.15355E+02  0.28935E+02 -0.44290E+02  0.24148E+01  0.26326E+01 -0.60746E+01      982.00
  0.60897E+00  0.68693E+02    0.31250E+00  0.31250E+00 -0.62500E+00  0.00000E+00  0.00000E+00  0.00000E+00    0.15305E+02  0.29047E+02 -0.44352E+02  0.24091E+01  0.26212E+01 -0.61373E+01      982.00
  0.63318E+00  0.68799E+02    0.32500E+00  0.32500E+00 -0.65000E+00  0.00000E+00  0.00000E+00  0.00000E+00    0.15252E+02  0.29149E+02 -0.44402E+02  0.24045E+01  0.25978E+01 -0.61890E+01      982.00
  0.65739E+00  0.68913E+02    0.33750E+00  0.33750E+00 -0.67500E+00  0.00000E+00  0.00000E+00  0.00000E+00    0.15207E+02  0.29248E+02 -0.44456E+02  0.23993E+01  0.25882E+01 -0.62442E+01      982.00
  0.68158E+00  0.69004E+02    0.35000E+00  0.35000E+00 -0.70000E+00  0.00000E+00  0.00000E+00  0.00000E+00    0.15161E+02  0.29335E+02 -0.44496E+02  0.23954E+01  0.25798E+01 -0.62953E+01      982.00
  0.70576E+00  0.69098E+02    0.36250E+00  0.36250E+00 -0.72500E+00  0.00000E+00  0.00000E+00  0.00000E+00    0.15121E+02  0.29419E+02 -0.44540E+02  0.23911E+01  0.25710E+01 -0.63430E+01      982.00
  0.72993E+00  0.69185E+02    0.37500E+00  0.37500E+00 -0.75000E+00  0.00000E+00  0.00000E+00  0.00000E+00    0.15080E+02  0.29498E+02 -0.44579E+02  0.23887E+01  0.25633E+01 -0.63886E+01      982.00
  0.75409E+00  0.69266E+02    0.38750E+00  0.38750E+00 -0.77500E+00  0.00000E+00  0.00000E+00  0.00000E+00    0.15043E+02  0.29572E+02 -0.44615E+02  0.23874E+01  0.25561E+01 -0.64308E+01      982.00
  0.77825E+00  0.69327E+02    0.40000E+00  0.40000E+00 -0.80000E+00  0.00000E+00  0.00000E+00  0.00000E+00    0.15005E+02  0.29637E+02 -0.44641E+02  0.23857E+01  0.25400E+01 -0.64627E+01      982.00
  0.80239E+00  0.69398E+02    0.41250E+00  0.41250E+00 -0.82500E+00  0.00000E+00  0.00000E+00  0.00000E+00    0.14970E+02  0.29702E+02 -0.44672E+02  0.23861E+01  0.25340E+01 -0.65006E+01      982.00
  0.82653E+00  0.69455E+02    0.42500E+00  0.42500E+00 -0.85000E+00  0.00000E+00  0.00000E+00  0.00000E+00    0.14935E+02  0.29760E+02 -0.44695E+02  0.23879E+01  0.25282E+01 -0.65348E+01      982.00
  0.85067E+00  0.69514E+02    0.43750E+00  0.43750E+00 -0.87500E+00  0.00000E+00  0.00000E+00  0.00000E+00    0.14904E+02  0.29816E+02 -0.44720E+02  0.23910E+01  0.25233E+01 -0.65683E+01      982.00
  0.87479E+00  0.69563E+02    0.45000E+00  0.45000E+00 -0.90000E+00  0.00000E+00  0.00000E+00  0.00000E+00    0.14872E+02  0.29867E+02 -0.44739E+02  0.23953E+01  0.25184E+01 -0.65985E+01      982.00
  0.89891E+00  0.69607E+02    0.46250E+00  0.46250E+00 -0.92500E+00  0.00000E+00  0.00000E+00  0.00000E+00    0.14843E+02  0.29913E+02 -0.44755E+02  0.24006E+01  0.25144E+01 -0.66267E+01      982.00
  0.92302E+00  0.69614E+02    0.47500E+00  0.47500E+00 -0.95000E+00  0.00000E+00  0.00000E+00  0.00000E+00    0.14837E+02  0.29919E+02 -0.44756E+02  0.23850E+01  0.25092E+01 -0.66502E+01      982.00
  0.94713E+00  0.69584E+02    0.48750E+00  0.48750E+00 -0.97500E+00  0.00000E+00  0.00000E+00  0.00000E+00    0.14768E+02  0.29952E+02 -0.44720E+02  0.24074E+01  0.24913E+01 -0.66649E+01      982.00
  0.97123E+00  0.69583E+02    0.50000E+00  0.50000E+00 -0.10000E+01  0.00000E+00  0.00000E+00  0.00000E+00    0.14752E+02  0.29964E+02 -0.44716E+02  0.24083E+01  0.24791E+01 -0.66704E+01      982.00
