          Evm          Svm            E11          E22          E33          E23          E13          E12         SDEV11       SDEV22       SDEV33       SDEV23       SDEV13       SDEV12      TEMP
  0.00000E+00  0.51667E+02    0.00000E+00  0.00000E+00  0.00000E+00  0.00000E+00  0.00000E+00  0.00000E+00    0.21013E+02  0.12267E+02 -0.33281E+02 -0.46006E+01  0.32297E+01 -0.29022E+01      982.00
  0.24155E-01  0.51512E+02    0.12500E-01  0.12500E-01 -0.25000E-01  0.00000E+00  0.00000E+00  0.00000E+00    0.20876E+02  0.12278E+02 -0.33154E+02 -0.40159E+01  0.35451E+01 -0.35960E+01      982.00
  0.48290E-01  0.51472E+02    0.25000E-01  0.25000E-01 -0.50000E-01  0.00000E+00  0.00000E+00  0.00000E+00    0.20691E+02  0.12397E+02 -0.33088E+02 -0.33348E+01  0.38570E+01 -0.43364E+01      982.00
  0.72397E-01  0.51551E+02    0.37500E-01  0.37500E-01 -0.75000E-01  0.00000E+00  0.00000E+00  0.00000E+00    0.20424E+02  0.12657E+02 -0.33081E+02 -0.25183E+01  0.41495E+01 -0.51408E+01      982.00
  0.96461E-01  0.51762E+02    0.50000E-01  0.50000E-01 -0.10000E+00  0.00000E+00  0.00000E+00  0.00000E+00    0.20048E+02  0.13081E+02 -0.33129E+02 -0.15394E+01  0.43980E+01 -0.60087E+01      982.00
  0.12046E+00  0.52079E+02    0.62500E-01  0.62500E-01 -0.12500E+00  0.00000E+00  0.00000E+00  0.00000E+00    0.19594E+02  0.13606E+02 -0.33200E+02 -0.46849E+00  0.45850E+01 -0.68720E+01      982.00
  0.14437E+00  0.52451E+02    0.75000E-01  0.75000E-01 -0.15000E+00  0.00000E+00  0.00000E+00  0.00000E+00    0.19155E+02  0.14113E+02 -0.33268E+02  0.49855E+00  0.47298E+01 -0.76154E+01      982.00
  0.16815E+00  0.52856E+02    0.87500E-01  0.87500E-01 -0.17500E+00  0.00000E+00  0.00000E+00  0.00000E+00    0.18819E+02  0.14536E+02 -0.33355E+02  0.12149E+01  0.48613E+01 -0.81924E+01      982.00
  0.19182E+00  0.53276E+02    0.10000E+00  0.10000E+00 -0.20000E+00  0.00000E+00  0.00000E+00  0.00000E+00    0.18602E+02  0.14872E+02 -0.33474E+02  0.16900E+01  0.49830E+01 -0.86350E+01      982.00
  0.21538E+00  0.53711E+02    0.11250E+00  0.11250E+00 -0.22500E+00  0.00000E+00  0.00000E+00  0.00000E+00    0.18491E+02  0.15137E+02 -0.33628E+02  0.19962E+01  0.50916E+01 -0.89873E+01      982.00
  0.23886E+00  0.54144E+02    0.12500E+00  0.12500E+00 -0.25000E+00  0.00000E+00  0.00000E+00  0.00000E+00    0.18459E+02  0.15343E+02 -0.33802E+02  0.21971E+01  0.51815E+01 -0.92812E+01      982.00
  0.26227E+00  0.54591E+02    0.13750E+00  0.13750E+00 -0.27500E+00  0.00000E+00  0.00000E+00  0.00000E+00    0.18497E+02  0.15505E+02 -0.34002E+02  0.23325E+01  0.52555E+01 -0.95388E+01      982.00
  0.28563E+00  0.55047E+02    0.15000E+00  0.15000E+00 -0.30000E+00  0.00000E+00  0.00000E+00  0.00000E+00    0.18586E+02  0.15635E+02 -0.34221E+02  0.24331E+01  0.53147E+01 -0.97679E+01      982.00
  0.30894E+00  0.55509E+02    0.16250E+00  0.16250E+00 -0.32500E+00  0.00000E+00  0.00000E+00  0.00000E+00    0.18717E+02  0.15738E+02 -0.34455E+02  0.25113E+01  0.53605E+01 -0.99729E+01      982.00
  0.33222E+00  0.55975E+02    0.17500E+00  0.17500E+00 -0.35000E+00  0.00000E+00  0.00000E+00  0.00000E+00    0.18879E+02  0.15820E+02 -0.34699E+02  0.25831E+01  0.53963E+01 -0.10163E+02      982.00
  0.35546E+00  0.56455E+02    0.18750E+00  0.18750E+00 -0.37500E+00  0.00000E+00  0.00000E+00  0.00000E+00    0.19069E+02  0.15885E+02 -0.34954E+02  0.26544E+01  0.54250E+01 -0.10345E+02      982.00
  0.37868E+00  0.56941E+02    0.20000E+00  0.20000E+00 -0.40000E+00  0.00000E+00  0.00000E+00  0.00000E+00    0.19279E+02  0.15945E+02 -0.35224E+02  0.27226E+01  0.54391E+01 -0.10507E+02      982.00
  0.40188E+00  0.57426E+02    0.21250E+00  0.21250E+00 -0.42500E+00  0.00000E+00  0.00000E+00  0.00000E+00    0.19503E+02  0.15996E+02 -0.35498E+02  0.27963E+01  0.54473E+01 -0.10659E+02      982.00
  0.42506E+00  0.57923E+02    0.22500E+00  0.22500E+00 -0.45000E+00  0.00000E+00  0.00000E+00  0.00000E+00    0.19741E+02  0.16045E+02 -0.35786E+02  0.28749E+01  0.54478E+01 -0.10796E+02      982.00
  0.44823E+00  0.58429E+02    0.23750E+00  0.23750E+00 -0.47500E+00  0.00000E+00  0.00000E+00  0.00000E+00    0.19996E+02  0.16083E+02 -0.36079E+02  0.29673E+01  0.54469E+01 -0.10929E+02      982.00
  0.47138E+00  0.58915E+02    0.25000E+00  0.25000E+00 -0.50000E+00  0.00000E+00  0.00000E+00  0.00000E+00    0.20241E+02  0.16132E+02 -0.36373E+02  0.30464E+01  0.54333E+01 -0.11034E+02      982.00
  0.49453E+00  0.59406E+02    0.26250E+00  0.26250E+00 -0.52500E+00  0.00000E+00  0.00000E+00  0.00000E+00    0.20499E+02  0.16172E+02 -0.36671E+02  0.31370E+01  0.54170E+01 -0.11132E+02      982.00
  0.51768E+00  0.59890E+02    0.27500E+00  0.27500E+00 -0.55000E+00  0.00000E+00  0.00000E+00  0.00000E+00    0.20759E+02  0.16210E+02 -0.36969E+02  0.32317E+01  0.53966E+01 -0.11218E+02      982.00
  0.54083E+00  0.60370E+02    0.28750E+00  0.28750E+00 -0.57500E+00  0.00000E+00  0.00000E+00  0.00000E+00    0.21021E+02  0.16249E+02 -0.37269E+02  0.33269E+01  0.53708E+01 -0.11291E+02      982.00
  0.56398E+00  0.60838E+02    0.30000E+00  0.30000E+00 -0.60000E+00  0.00000E+00  0.00000E+00  0.00000E+00    0.21280E+02  0.16286E+02 -0.37566E+02  0.34235E+01  0.53391E+01 -0.11352E+02      982.00
  0.58714E+00  0.61297E+02    0.31250E+00  0.31250E+00 -0.62500E+00  0.00000E+00  0.00000E+00  0.00000E+00    0.21539E+02  0.16324E+02 -0.37862E+02  0.35192E+01  0.53029E+01 -0.11400E+02      982.00
  0.61030E+00  0.61739E+02    0.32500E+00  0.32500E+00 -0.65000E+00  0.00000E+00  0.00000E+00  0.00000E+00    0.21794E+02  0.16359E+02 -0.38153E+02  0.36032E+01  0.52634E+01 -0.11434E+02      982.00
  0.63347E+00  0.62171E+02    0.33750E+00  0.33750E+00 -0.67500E+00  0.00000E+00  0.00000E+00  0.00000E+00    0.22045E+02  0.16396E+02 -0.38440E+02  0.36957E+01  0.52176E+01 -0.11459E+02      982.00
  0.65666E+00  0.62592E+02    0.35000E+00  0.35000E+00 -0.70000E+00  0.00000E+00  0.00000E+00  0.00000E+00    0.22292E+02  0.16433E+02 -0.38725E+02  0.37864E+01  0.51679E+01 -0.11472E+02      982.00
  0.67986E+00  0.62996E+02    0.36250E+00  0.36250E+00 -0.72500E+00  0.00000E+00  0.00000E+00  0.00000E+00    0.22531E+02  0.16469E+02 -0.39001E+02  0.38740E+01  0.51148E+01 -0.11476E+02      982.00
  0.70308E+00  0.63393E+02    0.37500E+00  0.37500E+00 -0.75000E+00  0.00000E+00  0.00000E+00  0.00000E+00    0.22768E+02  0.16508E+02 -0.39276E+02  0.39589E+01  0.50574E+01 -0.11470E+02      982.00
  0.72631E+00  0.63763E+02    0.38750E+00  0.38750E+00 -0.77500E+00  0.00000E+00  0.00000E+00  0.00000E+00    0.22994E+02  0.16544E+02 -0.39538E+02  0.40337E+01  0.49961E+01 -0.11452E+02      982.00
  0.74956E+00  0.64119E+02    0.40000E+00  0.40000E+00 -0.80000E+00  0.00000E+00  0.00000E+00  0.00000E+00    0.23214E+02  0.16578E+02 -0.39792E+02  0.41121E+01  0.49333E+01 -0.11429E+02      982.00
  0.77283E+00  0.64473E+02    0.41250E+00  0.41250E+00 -0.82500E+00  0.00000E+00  0.00000E+00  0.00000E+00    0.23440E+02  0.16607E+02 -0.40047E+02  0.41788E+01  0.48718E+01 -0.11397E+02      982.00
  0.79613E+00  0.64807E+02    0.42500E+00  0.42500E+00 -0.85000E+00  0.00000E+00  0.00000E+00  0.00000E+00    0.23649E+02  0.16642E+02 -0.40290E+02  0.42507E+01  0.48043E+01 -0.11360E+02      982.00
  0.81944E+00  0.65122E+02    0.43750E+00  0.43750E+00 -0.87500E+00  0.00000E+00  0.00000E+00  0.00000E+00    0.23851E+02  0.16674E+02 -0.40525E+02  0.43173E+01  0.47350E+01 -0.11314E+02      982.00
  0.84278E+00  0.65421E+02    0.45000E+00  0.45000E+00 -0.90000E+00  0.00000E+00  0.00000E+00  0.00000E+00    0.24044E+02  0.16705E+02 -0.40749E+02  0.43801E+01  0.46648E+01 -0.11263E+02      982.00
  0.86613E+00  0.65709E+02    0.46250E+00  0.46250E+00 -0.92500E+00  0.00000E+00  0.00000E+00  0.00000E+00    0.24234E+02  0.16734E+02 -0.40968E+02  0.44401E+01  0.45924E+01 -0.11206E+02      982.00
  0.88952E+00  0.65973E+02    0.47500E+00  0.47500E+00 -0.95000E+00  0.00000E+00  0.00000E+00  0.00000E+00    0.24413E+02  0.16760E+02 -0.41172E+02  0.44955E+01  0.45190E+01 -0.11143E+02      982.00
  0.91292E+00  0.66235E+02    0.48750E+00  0.48750E+00 -0.97500E+00  0.00000E+00  0.00000E+00  0.00000E+00    0.24590E+02  0.16785E+02 -0.41375E+02  0.45490E+01  0.44458E+01 -0.11078E+02      982.00
  0.93634E+00  0.66408E+02    0.50000E+00  0.50000E+00 -0.10000E+01  0.00000E+00  0.00000E+00  0.00000E+00    0.24733E+02  0.16800E+02 -0.41533E+02  0.45657E+01  0.43574E+01 -0.10985E+02      982.00
