          Evm          Svm            E11          E22          E33          E23          E13          E12         SDEV11       SDEV22       SDEV33       SDEV23       SDEV13       SDEV12      TEMP
  0.00000E+00  0.59488E+02    0.00000E+00  0.00000E+00  0.00000E+00  0.00000E+00  0.00000E+00  0.00000E+00    0.18955E+02  0.17812E+02 -0.36767E+02 -0.22755E+01  0.26173E+01  0.12385E+02      982.00
  0.23177E-01  0.59470E+02    0.12500E-01  0.12500E-01 -0.25000E-01  0.00000E+00  0.00000E+00  0.00000E+00    0.18889E+02  0.17844E+02 -0.36733E+02 -0.22374E+01  0.25080E+01  0.12463E+02      982.00
  0.46340E-01  0.59525E+02    0.25000E-01  0.25000E-01 -0.50000E-01  0.00000E+00  0.00000E+00  0.00000E+00    0.18867E+02  0.17854E+02 -0.36720E+02 -0.22346E+01  0.24794E+01  0.12585E+02      982.00
  0.69473E-01  0.59653E+02    0.37500E-01  0.37500E-01 -0.75000E-01  0.00000E+00  0.00000E+00  0.00000E+00    0.18864E+02  0.17882E+02 -0.36746E+02 -0.22524E+01  0.24662E+01  0.12730E+02      982.00
  0.92573E-01  0.59847E+02    0.50000E-01  0.50000E-01 -0.10000E+00  0.00000E+00  0.00000E+00  0.00000E+00    0.18883E+02  0.17920E+02 -0.36803E+02 -0.22814E+01  0.24702E+01  0.12904E+02      982.00
  0.11563E+00  0.60097E+02    0.62500E-01  0.62500E-01 -0.12500E+00  0.00000E+00  0.00000E+00  0.00000E+00    0.18917E+02  0.17971E+02 -0.36888E+02 -0.23184E+01  0.24821E+01  0.13098E+02      982.00
  0.13865E+00  0.60407E+02    0.75000E-01  0.75000E-01 -0.15000E+00  0.00000E+00  0.00000E+00  0.00000E+00    0.18962E+02  0.18037E+02 -0.36999E+02 -0.23645E+01  0.25018E+01  0.13326E+02      982.00
  0.16162E+00  0.60744E+02    0.87500E-01  0.87500E-01 -0.17500E+00  0.00000E+00  0.00000E+00  0.00000E+00    0.19018E+02  0.18113E+02 -0.37131E+02 -0.24077E+01  0.25187E+01  0.13549E+02      982.00
  0.18454E+00  0.61110E+02    0.10000E+00  0.10000E+00 -0.20000E+00  0.00000E+00  0.00000E+00  0.00000E+00    0.19079E+02  0.18199E+02 -0.37279E+02 -0.24493E+01  0.25338E+01  0.13781E+02      982.00
  0.20742E+00  0.61490E+02    0.11250E+00  0.11250E+00 -0.22500E+00  0.00000E+00  0.00000E+00  0.00000E+00    0.19150E+02  0.18289E+02 -0.37439E+02 -0.24825E+01  0.25462E+01  0.14008E+02      982.00
  0.23025E+00  0.61862E+02    0.12500E+00  0.12500E+00 -0.25000E+00  0.00000E+00  0.00000E+00  0.00000E+00    0.19215E+02  0.18380E+02 -0.37595E+02 -0.25210E+01  0.25611E+01  0.14230E+02      982.00
  0.25304E+00  0.62258E+02    0.13750E+00  0.13750E+00 -0.27500E+00  0.00000E+00  0.00000E+00  0.00000E+00    0.19283E+02  0.18476E+02 -0.37759E+02 -0.25669E+01  0.25820E+01  0.14467E+02      982.00
  0.27578E+00  0.62667E+02    0.15000E+00  0.15000E+00 -0.30000E+00  0.00000E+00  0.00000E+00  0.00000E+00    0.19355E+02  0.18573E+02 -0.37928E+02 -0.26232E+01  0.26164E+01  0.14707E+02      982.00
  0.29848E+00  0.63046E+02    0.16250E+00  0.16250E+00 -0.32500E+00  0.00000E+00  0.00000E+00  0.00000E+00    0.19413E+02  0.18661E+02 -0.38074E+02 -0.26991E+01  0.26691E+01  0.14938E+02      982.00
  0.32113E+00  0.63381E+02    0.17500E+00  0.17500E+00 -0.35000E+00  0.00000E+00  0.00000E+00  0.00000E+00    0.19464E+02  0.18736E+02 -0.38200E+02 -0.27630E+01  0.27169E+01  0.15148E+02      982.00
  0.34373E+00  0.63637E+02    0.18750E+00  0.18750E+00 -0.37500E+00  0.00000E+00  0.00000E+00  0.00000E+00    0.19494E+02  0.18800E+02 -0.38294E+02 -0.27968E+01  0.27334E+01  0.15318E+02      982.00
  0.36629E+00  0.63902E+02    0.20000E+00  0.20000E+00 -0.40000E+00  0.00000E+00  0.00000E+00  0.00000E+00    0.19522E+02  0.18874E+02 -0.38395E+02 -0.28044E+01  0.27192E+01  0.15496E+02      982.00
  0.38883E+00  0.64143E+02    0.21250E+00  0.21250E+00 -0.42500E+00  0.00000E+00  0.00000E+00  0.00000E+00    0.19541E+02  0.18946E+02 -0.38487E+02 -0.27821E+01  0.26737E+01  0.15669E+02      982.00
  0.41133E+00  0.64377E+02    0.22500E+00  0.22500E+00 -0.45000E+00  0.00000E+00  0.00000E+00  0.00000E+00    0.19565E+02  0.19011E+02 -0.38576E+02 -0.27315E+01  0.26055E+01  0.15846E+02      982.00
  0.43380E+00  0.64590E+02    0.23750E+00  0.23750E+00 -0.47500E+00  0.00000E+00  0.00000E+00  0.00000E+00    0.19578E+02  0.19075E+02 -0.38653E+02 -0.26637E+01  0.25174E+01  0.16018E+02      982.00
  0.45624E+00  0.64794E+02    0.25000E+00  0.25000E+00 -0.50000E+00  0.00000E+00  0.00000E+00  0.00000E+00    0.19591E+02  0.19134E+02 -0.38725E+02 -0.25912E+01  0.24256E+01  0.16188E+02      982.00
  0.47865E+00  0.64990E+02    0.26250E+00  0.26250E+00 -0.52500E+00  0.00000E+00  0.00000E+00  0.00000E+00    0.19604E+02  0.19190E+02 -0.38794E+02 -0.25150E+01  0.23318E+01  0.16351E+02      982.00
  0.50104E+00  0.65178E+02    0.27500E+00  0.27500E+00 -0.55000E+00  0.00000E+00  0.00000E+00  0.00000E+00    0.19616E+02  0.19241E+02 -0.38857E+02 -0.24396E+01  0.22402E+01  0.16512E+02      982.00
  0.52339E+00  0.65358E+02    0.28750E+00  0.28750E+00 -0.57500E+00  0.00000E+00  0.00000E+00  0.00000E+00    0.19630E+02  0.19287E+02 -0.38917E+02 -0.23671E+01  0.21537E+01  0.16666E+02      982.00
  0.54572E+00  0.65521E+02    0.30000E+00  0.30000E+00 -0.60000E+00  0.00000E+00  0.00000E+00  0.00000E+00    0.19635E+02  0.19331E+02 -0.38966E+02 -0.22933E+01  0.20624E+01  0.16813E+02      982.00
  0.56802E+00  0.65673E+02    0.31250E+00  0.31250E+00 -0.62500E+00  0.00000E+00  0.00000E+00  0.00000E+00    0.19647E+02  0.19365E+02 -0.39012E+02 -0.22331E+01  0.19895E+01  0.16948E+02      982.00
  0.59030E+00  0.65823E+02    0.32500E+00  0.32500E+00 -0.65000E+00  0.00000E+00  0.00000E+00  0.00000E+00    0.19663E+02  0.19397E+02 -0.39059E+02 -0.21789E+01  0.19253E+01  0.17075E+02      982.00
  0.61255E+00  0.65960E+02    0.33750E+00  0.33750E+00 -0.67500E+00  0.00000E+00  0.00000E+00  0.00000E+00    0.19678E+02  0.19423E+02 -0.39101E+02 -0.21315E+01  0.18681E+01  0.17192E+02      982.00
  0.63478E+00  0.66086E+02    0.35000E+00  0.35000E+00 -0.70000E+00  0.00000E+00  0.00000E+00  0.00000E+00    0.19690E+02  0.19449E+02 -0.39139E+02 -0.20867E+01  0.18115E+01  0.17298E+02      982.00
  0.65699E+00  0.66204E+02    0.36250E+00  0.36250E+00 -0.72500E+00  0.00000E+00  0.00000E+00  0.00000E+00    0.19706E+02  0.19469E+02 -0.39175E+02 -0.20513E+01  0.17675E+01  0.17396E+02      982.00
  0.67918E+00  0.66323E+02    0.37500E+00  0.37500E+00 -0.75000E+00  0.00000E+00  0.00000E+00  0.00000E+00    0.19727E+02  0.19487E+02 -0.39214E+02 -0.20214E+01  0.17304E+01  0.17489E+02      982.00
  0.70135E+00  0.66418E+02    0.38750E+00  0.38750E+00 -0.77500E+00  0.00000E+00  0.00000E+00  0.00000E+00    0.19742E+02  0.19502E+02 -0.39244E+02 -0.19906E+01  0.16896E+01  0.17566E+02      982.00
  0.72351E+00  0.66517E+02    0.40000E+00  0.40000E+00 -0.80000E+00  0.00000E+00  0.00000E+00  0.00000E+00    0.19762E+02  0.19514E+02 -0.39276E+02 -0.19696E+01  0.16622E+01  0.17642E+02      982.00
  0.74565E+00  0.66599E+02    0.41250E+00  0.41250E+00 -0.82500E+00  0.00000E+00  0.00000E+00  0.00000E+00    0.19781E+02  0.19521E+02 -0.39302E+02 -0.19642E+01  0.16544E+01  0.17703E+02      982.00
  0.76778E+00  0.66677E+02    0.42500E+00  0.42500E+00 -0.85000E+00  0.00000E+00  0.00000E+00  0.00000E+00    0.19801E+02  0.19529E+02 -0.39330E+02 -0.19414E+01  0.16238E+01  0.17759E+02      982.00
  0.78990E+00  0.66760E+02    0.43750E+00  0.43750E+00 -0.87500E+00  0.00000E+00  0.00000E+00  0.00000E+00    0.19823E+02  0.19535E+02 -0.39358E+02 -0.19293E+01  0.16058E+01  0.17819E+02      982.00
  0.81201E+00  0.66840E+02    0.45000E+00  0.45000E+00 -0.90000E+00  0.00000E+00  0.00000E+00  0.00000E+00    0.19847E+02  0.19537E+02 -0.39384E+02 -0.19111E+01  0.15797E+01  0.17880E+02      982.00
  0.83411E+00  0.66910E+02    0.46250E+00  0.46250E+00 -0.92500E+00  0.00000E+00  0.00000E+00  0.00000E+00    0.19869E+02  0.19539E+02 -0.39407E+02 -0.19038E+01  0.15668E+01  0.17930E+02      982.00
  0.85619E+00  0.66977E+02    0.47500E+00  0.47500E+00 -0.95000E+00  0.00000E+00  0.00000E+00  0.00000E+00    0.19892E+02  0.19540E+02 -0.39432E+02 -0.18986E+01  0.15575E+01  0.17975E+02      982.00
  0.87827E+00  0.67050E+02    0.48750E+00  0.48750E+00 -0.97500E+00  0.00000E+00  0.00000E+00  0.00000E+00    0.19921E+02  0.19531E+02 -0.39452E+02 -0.18890E+01  0.15408E+01  0.18035E+02      982.00
  0.90033E+00  0.67107E+02    0.50000E+00  0.50000E+00 -0.10000E+01  0.00000E+00  0.00000E+00  0.00000E+00    0.19946E+02  0.19527E+02 -0.39473E+02 -0.18859E+01  0.15326E+01  0.18071E+02      982.00
