          Evm          Svm            E11          E22          E33          E23          E13          E12         SDEV11       SDEV22       SDEV33       SDEV23       SDEV13       SDEV12      TEMP
  0.00000E+00  0.58183E+02    0.00000E+00  0.00000E+00  0.00000E+00  0.00000E+00  0.00000E+00  0.00000E+00    0.15822E+02  0.20444E+02 -0.36265E+02 -0.37339E+01  0.33460E+00  0.11074E+02      982.00
  0.23374E-01  0.58278E+02    0.12500E-01  0.12500E-01 -0.25000E-01  0.00000E+00  0.00000E+00  0.00000E+00    0.16368E+02  0.19907E+02 -0.36275E+02 -0.34637E+01  0.58099E+00  0.11391E+02      982.00
  0.46715E-01  0.58409E+02    0.25000E-01  0.25000E-01 -0.50000E-01  0.00000E+00  0.00000E+00  0.00000E+00    0.16859E+02  0.19430E+02 -0.36289E+02 -0.32663E+01  0.82745E+00  0.11685E+02      982.00
  0.70014E-01  0.58587E+02    0.37500E-01  0.37500E-01 -0.75000E-01  0.00000E+00  0.00000E+00  0.00000E+00    0.17299E+02  0.19019E+02 -0.36318E+02 -0.31125E+01  0.10701E+01  0.11972E+02      982.00
  0.93260E-01  0.58825E+02    0.50000E-01  0.50000E-01 -0.10000E+00  0.00000E+00  0.00000E+00  0.00000E+00    0.17682E+02  0.18689E+02 -0.36371E+02 -0.29950E+01  0.12962E+01  0.12265E+02      982.00
  0.11645E+00  0.59118E+02    0.62500E-01  0.62500E-01 -0.12500E+00  0.00000E+00  0.00000E+00  0.00000E+00    0.18006E+02  0.18442E+02 -0.36448E+02 -0.29084E+01  0.14973E+01  0.12565E+02      982.00
  0.13957E+00  0.59456E+02    0.75000E-01  0.75000E-01 -0.15000E+00  0.00000E+00  0.00000E+00  0.00000E+00    0.18288E+02  0.18259E+02 -0.36547E+02 -0.28400E+01  0.16787E+01  0.12873E+02      982.00
  0.16262E+00  0.59825E+02    0.87500E-01  0.87500E-01 -0.17500E+00  0.00000E+00  0.00000E+00  0.00000E+00    0.18525E+02  0.18137E+02 -0.36662E+02 -0.27914E+01  0.18335E+01  0.13182E+02      982.00
  0.18560E+00  0.60212E+02    0.10000E+00  0.10000E+00 -0.20000E+00  0.00000E+00  0.00000E+00  0.00000E+00    0.18731E+02  0.18056E+02 -0.36787E+02 -0.27541E+01  0.19696E+01  0.13488E+02      982.00
  0.20851E+00  0.60604E+02    0.11250E+00  0.11250E+00 -0.22500E+00  0.00000E+00  0.00000E+00  0.00000E+00    0.18908E+02  0.18010E+02 -0.36918E+02 -0.27279E+01  0.20856E+01  0.13786E+02      982.00
  0.23135E+00  0.60992E+02    0.12500E+00  0.12500E+00 -0.25000E+00  0.00000E+00  0.00000E+00  0.00000E+00    0.19062E+02  0.17989E+02 -0.37051E+02 -0.27106E+01  0.21838E+01  0.14072E+02      982.00
  0.25413E+00  0.61370E+02    0.13750E+00  0.13750E+00 -0.27500E+00  0.00000E+00  0.00000E+00  0.00000E+00    0.19195E+02  0.17987E+02 -0.37183E+02 -0.27001E+01  0.22666E+01  0.14343E+02      982.00
  0.27685E+00  0.61731E+02    0.15000E+00  0.15000E+00 -0.30000E+00  0.00000E+00  0.00000E+00  0.00000E+00    0.19312E+02  0.17999E+02 -0.37311E+02 -0.26985E+01  0.23358E+01  0.14595E+02      982.00
  0.29952E+00  0.62078E+02    0.16250E+00  0.16250E+00 -0.32500E+00  0.00000E+00  0.00000E+00  0.00000E+00    0.19412E+02  0.18022E+02 -0.37434E+02 -0.27034E+01  0.23909E+01  0.14834E+02      982.00
  0.32213E+00  0.62398E+02    0.17500E+00  0.17500E+00 -0.35000E+00  0.00000E+00  0.00000E+00  0.00000E+00    0.19506E+02  0.18045E+02 -0.37550E+02 -0.27069E+01  0.24401E+01  0.15050E+02      982.00
  0.34470E+00  0.62699E+02    0.18750E+00  0.18750E+00 -0.37500E+00  0.00000E+00  0.00000E+00  0.00000E+00    0.19593E+02  0.18068E+02 -0.37661E+02 -0.27127E+01  0.24825E+01  0.15249E+02      982.00
  0.36722E+00  0.62985E+02    0.20000E+00  0.20000E+00 -0.40000E+00  0.00000E+00  0.00000E+00  0.00000E+00    0.19669E+02  0.18096E+02 -0.37765E+02 -0.27275E+01  0.25150E+01  0.15439E+02      982.00
  0.38971E+00  0.63250E+02    0.21250E+00  0.21250E+00 -0.42500E+00  0.00000E+00  0.00000E+00  0.00000E+00    0.19744E+02  0.18118E+02 -0.37862E+02 -0.27399E+01  0.25461E+01  0.15611E+02      982.00
  0.41216E+00  0.63491E+02    0.22500E+00  0.22500E+00 -0.45000E+00  0.00000E+00  0.00000E+00  0.00000E+00    0.19804E+02  0.18146E+02 -0.37950E+02 -0.27632E+01  0.25656E+01  0.15768E+02      982.00
  0.43457E+00  0.63703E+02    0.23750E+00  0.23750E+00 -0.47500E+00  0.00000E+00  0.00000E+00  0.00000E+00    0.19868E+02  0.18162E+02 -0.38030E+02 -0.27765E+01  0.25853E+01  0.15901E+02      982.00
  0.45696E+00  0.63932E+02    0.25000E+00  0.25000E+00 -0.50000E+00  0.00000E+00  0.00000E+00  0.00000E+00    0.19942E+02  0.18172E+02 -0.38114E+02 -0.27933E+01  0.26096E+01  0.16048E+02      982.00
  0.47931E+00  0.64110E+02    0.26250E+00  0.26250E+00 -0.52500E+00  0.00000E+00  0.00000E+00  0.00000E+00    0.19998E+02  0.18181E+02 -0.38179E+02 -0.28141E+01  0.26248E+01  0.16160E+02      982.00
  0.50165E+00  0.64289E+02    0.27500E+00  0.27500E+00 -0.55000E+00  0.00000E+00  0.00000E+00  0.00000E+00    0.20055E+02  0.18194E+02 -0.38249E+02 -0.28336E+01  0.26350E+01  0.16266E+02      982.00
  0.52396E+00  0.64463E+02    0.28750E+00  0.28750E+00 -0.57500E+00  0.00000E+00  0.00000E+00  0.00000E+00    0.20102E+02  0.18220E+02 -0.38322E+02 -0.28520E+01  0.26389E+01  0.16364E+02      982.00
  0.54625E+00  0.64615E+02    0.30000E+00  0.30000E+00 -0.60000E+00  0.00000E+00  0.00000E+00  0.00000E+00    0.20154E+02  0.18229E+02 -0.38383E+02 -0.28697E+01  0.26454E+01  0.16450E+02      982.00
  0.56853E+00  0.64763E+02    0.31250E+00  0.31250E+00 -0.62500E+00  0.00000E+00  0.00000E+00  0.00000E+00    0.20207E+02  0.18236E+02 -0.38443E+02 -0.28858E+01  0.26501E+01  0.16533E+02      982.00
  0.59079E+00  0.64887E+02    0.32500E+00  0.32500E+00 -0.65000E+00  0.00000E+00  0.00000E+00  0.00000E+00    0.20268E+02  0.18223E+02 -0.38492E+02 -0.28993E+01  0.26467E+01  0.16607E+02      982.00
  0.61303E+00  0.65021E+02    0.33750E+00  0.33750E+00 -0.67500E+00  0.00000E+00  0.00000E+00  0.00000E+00    0.20324E+02  0.18227E+02 -0.38551E+02 -0.29143E+01  0.26461E+01  0.16673E+02      982.00
  0.63526E+00  0.65137E+02    0.35000E+00  0.35000E+00 -0.70000E+00  0.00000E+00  0.00000E+00  0.00000E+00    0.20372E+02  0.18231E+02 -0.38603E+02 -0.29257E+01  0.26415E+01  0.16732E+02      982.00
  0.65749E+00  0.65250E+02    0.36250E+00  0.36250E+00 -0.72500E+00  0.00000E+00  0.00000E+00  0.00000E+00    0.20421E+02  0.18234E+02 -0.38655E+02 -0.29352E+01  0.26341E+01  0.16785E+02      982.00
  0.67970E+00  0.65357E+02    0.37500E+00  0.37500E+00 -0.75000E+00  0.00000E+00  0.00000E+00  0.00000E+00    0.20468E+02  0.18238E+02 -0.38707E+02 -0.29422E+01  0.26238E+01  0.16835E+02      982.00
  0.70191E+00  0.65461E+02    0.38750E+00  0.38750E+00 -0.77500E+00  0.00000E+00  0.00000E+00  0.00000E+00    0.20516E+02  0.18242E+02 -0.38758E+02 -0.29469E+01  0.26109E+01  0.16881E+02      982.00
  0.72412E+00  0.65563E+02    0.40000E+00  0.40000E+00 -0.80000E+00  0.00000E+00  0.00000E+00  0.00000E+00    0.20563E+02  0.18247E+02 -0.38809E+02 -0.29496E+01  0.25958E+01  0.16925E+02      982.00
  0.74631E+00  0.65651E+02    0.41250E+00  0.41250E+00 -0.82500E+00  0.00000E+00  0.00000E+00  0.00000E+00    0.20597E+02  0.18259E+02 -0.38856E+02 -0.29542E+01  0.25909E+01  0.16956E+02      982.00
  0.76851E+00  0.65750E+02    0.42500E+00  0.42500E+00 -0.85000E+00  0.00000E+00  0.00000E+00  0.00000E+00    0.20646E+02  0.18261E+02 -0.38907E+02 -0.29555E+01  0.25786E+01  0.16996E+02      982.00
  0.79070E+00  0.65867E+02    0.43750E+00  0.43750E+00 -0.87500E+00  0.00000E+00  0.00000E+00  0.00000E+00    0.20709E+02  0.18256E+02 -0.38965E+02 -0.29572E+01  0.25604E+01  0.17047E+02      982.00
  0.81288E+00  0.65976E+02    0.45000E+00  0.45000E+00 -0.90000E+00  0.00000E+00  0.00000E+00  0.00000E+00    0.20762E+02  0.18258E+02 -0.39020E+02 -0.29683E+01  0.25599E+01  0.17090E+02      982.00
  0.83506E+00  0.66087E+02    0.46250E+00  0.46250E+00 -0.92500E+00  0.00000E+00  0.00000E+00  0.00000E+00    0.20816E+02  0.18257E+02 -0.39073E+02 -0.29870E+01  0.25736E+01  0.17135E+02      982.00
  0.85723E+00  0.66201E+02    0.47500E+00  0.47500E+00 -0.95000E+00  0.00000E+00  0.00000E+00  0.00000E+00    0.20871E+02  0.18255E+02 -0.39125E+02 -0.30095E+01  0.25958E+01  0.17183E+02      982.00
  0.87940E+00  0.66312E+02    0.48750E+00  0.48750E+00 -0.97500E+00  0.00000E+00  0.00000E+00  0.00000E+00    0.20911E+02  0.18267E+02 -0.39177E+02 -0.30161E+01  0.26058E+01  0.17233E+02      982.00
  0.90155E+00  0.66427E+02    0.50000E+00  0.50000E+00 -0.10000E+01  0.00000E+00  0.00000E+00  0.00000E+00    0.20976E+02  0.18247E+02 -0.39222E+02 -0.30211E+01  0.25989E+01  0.17300E+02      982.00
