          Evm          Svm            E11          E22          E33          E23          E13          E12         SDEV11       SDEV22       SDEV33       SDEV23       SDEV13       SDEV12      TEMP
  0.00000E+00  0.55882E+02    0.00000E+00  0.00000E+00  0.00000E+00  0.00000E+00  0.00000E+00  0.00000E+00    0.20648E+02  0.13849E+02 -0.34497E+02 -0.87588E+00  0.49020E+01  0.10585E+02      982.00
  0.23149E-01  0.55925E+02    0.12500E-01  0.12500E-01 -0.25000E-01  0.00000E+00  0.00000E+00  0.00000E+00    0.20179E+02  0.14331E+02 -0.34510E+02 -0.10974E+01  0.45460E+01  0.10903E+02      982.00
  0.46290E-01  0.56050E+02    0.25000E-01  0.25000E-01 -0.50000E-01  0.00000E+00  0.00000E+00  0.00000E+00    0.19718E+02  0.14835E+02 -0.34553E+02 -0.12960E+01  0.42115E+01  0.11242E+02      982.00
  0.69408E-01  0.56246E+02    0.37500E-01  0.37500E-01 -0.75000E-01  0.00000E+00  0.00000E+00  0.00000E+00    0.19322E+02  0.15295E+02 -0.34617E+02 -0.14578E+01  0.39202E+01  0.11588E+02      982.00
  0.92487E-01  0.56524E+02    0.50000E-01  0.50000E-01 -0.10000E+00  0.00000E+00  0.00000E+00  0.00000E+00    0.19030E+02  0.15677E+02 -0.34708E+02 -0.15822E+01  0.36749E+01  0.11945E+02      982.00
  0.11551E+00  0.56880E+02    0.62500E-01  0.62500E-01 -0.12500E+00  0.00000E+00  0.00000E+00  0.00000E+00    0.18848E+02  0.15982E+02 -0.34830E+02 -0.16745E+01  0.34691E+01  0.12317E+02      982.00
  0.13848E+00  0.57299E+02    0.75000E-01  0.75000E-01 -0.15000E+00  0.00000E+00  0.00000E+00  0.00000E+00    0.18754E+02  0.16224E+02 -0.34979E+02 -0.17427E+01  0.32941E+01  0.12699E+02      982.00
  0.16137E+00  0.57760E+02    0.87500E-01  0.87500E-01 -0.17500E+00  0.00000E+00  0.00000E+00  0.00000E+00    0.18735E+02  0.16412E+02 -0.35147E+02 -0.17889E+01  0.31480E+01  0.13080E+02      982.00
  0.18419E+00  0.58242E+02    0.10000E+00  0.10000E+00 -0.20000E+00  0.00000E+00  0.00000E+00  0.00000E+00    0.18764E+02  0.16563E+02 -0.35327E+02 -0.18199E+01  0.30250E+01  0.13454E+02      982.00
  0.20693E+00  0.58730E+02    0.11250E+00  0.11250E+00 -0.22500E+00  0.00000E+00  0.00000E+00  0.00000E+00    0.18822E+02  0.16691E+02 -0.35513E+02 -0.18403E+01  0.29208E+01  0.13814E+02      982.00
  0.22961E+00  0.59212E+02    0.12500E+00  0.12500E+00 -0.25000E+00  0.00000E+00  0.00000E+00  0.00000E+00    0.18893E+02  0.16804E+02 -0.35698E+02 -0.18540E+01  0.28312E+01  0.14156E+02      982.00
  0.25222E+00  0.59681E+02    0.13750E+00  0.13750E+00 -0.27500E+00  0.00000E+00  0.00000E+00  0.00000E+00    0.18971E+02  0.16909E+02 -0.35879E+02 -0.18566E+01  0.27662E+01  0.14479E+02      982.00
  0.27476E+00  0.60116E+02    0.15000E+00  0.15000E+00 -0.30000E+00  0.00000E+00  0.00000E+00  0.00000E+00    0.19035E+02  0.17011E+02 -0.36046E+02 -0.18654E+01  0.26989E+01  0.14777E+02      982.00
  0.29725E+00  0.60547E+02    0.16250E+00  0.16250E+00 -0.32500E+00  0.00000E+00  0.00000E+00  0.00000E+00    0.19096E+02  0.17117E+02 -0.36213E+02 -0.18703E+01  0.26484E+01  0.15066E+02      982.00
  0.31968E+00  0.60952E+02    0.17500E+00  0.17500E+00 -0.35000E+00  0.00000E+00  0.00000E+00  0.00000E+00    0.19143E+02  0.17226E+02 -0.36368E+02 -0.18778E+01  0.26028E+01  0.15336E+02      982.00
  0.34205E+00  0.61330E+02    0.18750E+00  0.18750E+00 -0.37500E+00  0.00000E+00  0.00000E+00  0.00000E+00    0.19174E+02  0.17339E+02 -0.36513E+02 -0.18890E+01  0.25595E+01  0.15587E+02      982.00
  0.36438E+00  0.61681E+02    0.20000E+00  0.20000E+00 -0.40000E+00  0.00000E+00  0.00000E+00  0.00000E+00    0.19191E+02  0.17455E+02 -0.36646E+02 -0.19041E+01  0.25169E+01  0.15820E+02      982.00
  0.38666E+00  0.62018E+02    0.21250E+00  0.21250E+00 -0.42500E+00  0.00000E+00  0.00000E+00  0.00000E+00    0.19202E+02  0.17571E+02 -0.36774E+02 -0.19191E+01  0.24797E+01  0.16043E+02      982.00
  0.40889E+00  0.62313E+02    0.22500E+00  0.22500E+00 -0.45000E+00  0.00000E+00  0.00000E+00  0.00000E+00    0.19189E+02  0.17696E+02 -0.36886E+02 -0.19430E+01  0.24352E+01  0.16236E+02      982.00
  0.43109E+00  0.62588E+02    0.23750E+00  0.23750E+00 -0.47500E+00  0.00000E+00  0.00000E+00  0.00000E+00    0.19170E+02  0.17819E+02 -0.36988E+02 -0.19673E+01  0.23907E+01  0.16420E+02      982.00
  0.45325E+00  0.62843E+02    0.25000E+00  0.25000E+00 -0.50000E+00  0.00000E+00  0.00000E+00  0.00000E+00    0.19143E+02  0.17941E+02 -0.37084E+02 -0.19922E+01  0.23462E+01  0.16588E+02      982.00
  0.47538E+00  0.63076E+02    0.26250E+00  0.26250E+00 -0.52500E+00  0.00000E+00  0.00000E+00  0.00000E+00    0.19110E+02  0.18060E+02 -0.37170E+02 -0.20170E+01  0.23024E+01  0.16743E+02      982.00
  0.49748E+00  0.63291E+02    0.27500E+00  0.27500E+00 -0.55000E+00  0.00000E+00  0.00000E+00  0.00000E+00    0.19074E+02  0.18177E+02 -0.37251E+02 -0.20404E+01  0.22600E+01  0.16884E+02      982.00
  0.51955E+00  0.63489E+02    0.28750E+00  0.28750E+00 -0.57500E+00  0.00000E+00  0.00000E+00  0.00000E+00    0.19035E+02  0.18290E+02 -0.37325E+02 -0.20619E+01  0.22196E+01  0.17012E+02      982.00
  0.54160E+00  0.63674E+02    0.30000E+00  0.30000E+00 -0.60000E+00  0.00000E+00  0.00000E+00  0.00000E+00    0.18995E+02  0.18401E+02 -0.37395E+02 -0.20816E+01  0.21800E+01  0.17132E+02      982.00
  0.56362E+00  0.63842E+02    0.31250E+00  0.31250E+00 -0.62500E+00  0.00000E+00  0.00000E+00  0.00000E+00    0.18955E+02  0.18508E+02 -0.37463E+02 -0.20988E+01  0.21448E+01  0.17233E+02      982.00
  0.58562E+00  0.64001E+02    0.32500E+00  0.32500E+00 -0.65000E+00  0.00000E+00  0.00000E+00  0.00000E+00    0.18919E+02  0.18606E+02 -0.37525E+02 -0.21117E+01  0.21127E+01  0.17330E+02      982.00
  0.60761E+00  0.64110E+02    0.33750E+00  0.33750E+00 -0.67500E+00  0.00000E+00  0.00000E+00  0.00000E+00    0.18870E+02  0.18698E+02 -0.37568E+02 -0.21238E+01  0.20749E+01  0.17398E+02      982.00
  0.62959E+00  0.64248E+02    0.35000E+00  0.35000E+00 -0.70000E+00  0.00000E+00  0.00000E+00  0.00000E+00    0.18840E+02  0.18784E+02 -0.37624E+02 -0.21314E+01  0.20486E+01  0.17480E+02      982.00
  0.65155E+00  0.64376E+02    0.36250E+00  0.36250E+00 -0.72500E+00  0.00000E+00  0.00000E+00  0.00000E+00    0.18812E+02  0.18864E+02 -0.37676E+02 -0.21361E+01  0.20255E+01  0.17553E+02      982.00
  0.67349E+00  0.64494E+02    0.37500E+00  0.37500E+00 -0.75000E+00  0.00000E+00  0.00000E+00  0.00000E+00    0.18787E+02  0.18939E+02 -0.37726E+02 -0.21388E+01  0.20047E+01  0.17620E+02      982.00
  0.69543E+00  0.64603E+02    0.38750E+00  0.38750E+00 -0.77500E+00  0.00000E+00  0.00000E+00  0.00000E+00    0.18764E+02  0.19008E+02 -0.37773E+02 -0.21399E+01  0.19861E+01  0.17680E+02      982.00
  0.71735E+00  0.64705E+02    0.40000E+00  0.40000E+00 -0.80000E+00  0.00000E+00  0.00000E+00  0.00000E+00    0.18744E+02  0.19072E+02 -0.37817E+02 -0.21395E+01  0.19693E+01  0.17735E+02      982.00
  0.73927E+00  0.64769E+02    0.41250E+00  0.41250E+00 -0.82500E+00  0.00000E+00  0.00000E+00  0.00000E+00    0.18714E+02  0.19130E+02 -0.37844E+02 -0.21378E+01  0.19467E+01  0.17770E+02      982.00
  0.76118E+00  0.64859E+02    0.42500E+00  0.42500E+00 -0.85000E+00  0.00000E+00  0.00000E+00  0.00000E+00    0.18700E+02  0.19185E+02 -0.37885E+02 -0.21357E+01  0.19330E+01  0.17817E+02      982.00
  0.78309E+00  0.64942E+02    0.43750E+00  0.43750E+00 -0.87500E+00  0.00000E+00  0.00000E+00  0.00000E+00    0.18689E+02  0.19234E+02 -0.37922E+02 -0.21324E+01  0.19212E+01  0.17858E+02      982.00
  0.80498E+00  0.65019E+02    0.45000E+00  0.45000E+00 -0.90000E+00  0.00000E+00  0.00000E+00  0.00000E+00    0.18679E+02  0.19279E+02 -0.37958E+02 -0.21287E+01  0.19105E+01  0.17896E+02      982.00
  0.82688E+00  0.65078E+02    0.46250E+00  0.46250E+00 -0.92500E+00  0.00000E+00  0.00000E+00  0.00000E+00    0.18662E+02  0.19323E+02 -0.37985E+02 -0.21232E+01  0.18940E+01  0.17927E+02      982.00
  0.84876E+00  0.65148E+02    0.47500E+00  0.47500E+00 -0.95000E+00  0.00000E+00  0.00000E+00  0.00000E+00    0.18658E+02  0.19361E+02 -0.38018E+02 -0.21193E+01  0.18845E+01  0.17960E+02      982.00
  0.87065E+00  0.65210E+02    0.48750E+00  0.48750E+00 -0.97500E+00  0.00000E+00  0.00000E+00  0.00000E+00    0.18655E+02  0.19393E+02 -0.38048E+02 -0.21150E+01  0.18764E+01  0.17988E+02      982.00
  0.89253E+00  0.65235E+02    0.50000E+00  0.50000E+00 -0.10000E+01  0.00000E+00  0.00000E+00  0.00000E+00    0.18663E+02  0.19397E+02 -0.38060E+02 -0.21205E+01  0.18784E+01  0.17998E+02      982.00
