          Evm          Svm            E11          E22          E33          E23          E13          E12         SDEV11       SDEV22       SDEV33       SDEV23       SDEV13       SDEV12      TEMP
  0.00000E+00  0.54142E+02    0.00000E+00  0.00000E+00  0.00000E+00  0.00000E+00  0.00000E+00  0.00000E+00    0.20483E+02  0.13061E+02 -0.33544E+02 -0.21516E+01  0.43103E+01  0.98096E+01      982.00
  0.23233E-01  0.54023E+02    0.12500E-01  0.12500E-01 -0.25000E-01  0.00000E+00  0.00000E+00  0.00000E+00    0.20196E+02  0.13303E+02 -0.33499E+02 -0.23132E+01  0.39349E+01  0.99228E+01      982.00
  0.46487E-01  0.54015E+02    0.25000E-01  0.25000E-01 -0.50000E-01  0.00000E+00  0.00000E+00  0.00000E+00    0.19878E+02  0.13630E+02 -0.33508E+02 -0.24937E+01  0.35229E+01  0.10102E+02      982.00
  0.69750E-01  0.54111E+02    0.37500E-01  0.37500E-01 -0.75000E-01  0.00000E+00  0.00000E+00  0.00000E+00    0.19549E+02  0.14011E+02 -0.33560E+02 -0.26746E+01  0.31096E+01  0.10334E+02      982.00
  0.93008E-01  0.54283E+02    0.50000E-01  0.50000E-01 -0.10000E+00  0.00000E+00  0.00000E+00  0.00000E+00    0.19275E+02  0.14362E+02 -0.33637E+02 -0.28315E+01  0.27415E+01  0.10586E+02      982.00
  0.11625E+00  0.54548E+02    0.62500E-01  0.62500E-01 -0.12500E+00  0.00000E+00  0.00000E+00  0.00000E+00    0.19104E+02  0.14648E+02 -0.33751E+02 -0.29603E+01  0.24277E+01  0.10856E+02      982.00
  0.13945E+00  0.54899E+02    0.75000E-01  0.75000E-01 -0.15000E+00  0.00000E+00  0.00000E+00  0.00000E+00    0.19041E+02  0.14862E+02 -0.33903E+02 -0.30672E+01  0.21625E+01  0.11140E+02      982.00
  0.16261E+00  0.55327E+02    0.87500E-01  0.87500E-01 -0.17500E+00  0.00000E+00  0.00000E+00  0.00000E+00    0.19064E+02  0.15028E+02 -0.34092E+02 -0.31606E+01  0.19350E+01  0.11439E+02      982.00
  0.18571E+00  0.55787E+02    0.10000E+00  0.10000E+00 -0.20000E+00  0.00000E+00  0.00000E+00  0.00000E+00    0.19150E+02  0.15150E+02 -0.34300E+02 -0.32337E+01  0.17405E+01  0.11729E+02      982.00
  0.20877E+00  0.56258E+02    0.11250E+00  0.11250E+00 -0.22500E+00  0.00000E+00  0.00000E+00  0.00000E+00    0.19275E+02  0.15237E+02 -0.34513E+02 -0.32958E+01  0.15725E+01  0.12010E+02      982.00
  0.23178E+00  0.56733E+02    0.12500E+00  0.12500E+00 -0.25000E+00  0.00000E+00  0.00000E+00  0.00000E+00    0.19425E+02  0.15307E+02 -0.34732E+02 -0.33435E+01  0.14409E+01  0.12275E+02      982.00
  0.25473E+00  0.57192E+02    0.13750E+00  0.13750E+00 -0.27500E+00  0.00000E+00  0.00000E+00  0.00000E+00    0.19579E+02  0.15364E+02 -0.34943E+02 -0.33863E+01  0.13204E+01  0.12527E+02      982.00
  0.27764E+00  0.57643E+02    0.15000E+00  0.15000E+00 -0.30000E+00  0.00000E+00  0.00000E+00  0.00000E+00    0.19737E+02  0.15422E+02 -0.35159E+02 -0.34132E+01  0.12379E+01  0.12753E+02      982.00
  0.30052E+00  0.58068E+02    0.16250E+00  0.16250E+00 -0.32500E+00  0.00000E+00  0.00000E+00  0.00000E+00    0.19885E+02  0.15477E+02 -0.35362E+02 -0.34325E+01  0.11742E+01  0.12965E+02      982.00
  0.32335E+00  0.58465E+02    0.17500E+00  0.17500E+00 -0.35000E+00  0.00000E+00  0.00000E+00  0.00000E+00    0.20023E+02  0.15531E+02 -0.35554E+02 -0.34420E+01  0.11288E+01  0.13159E+02      982.00
  0.34616E+00  0.58843E+02    0.18750E+00  0.18750E+00 -0.37500E+00  0.00000E+00  0.00000E+00  0.00000E+00    0.20151E+02  0.15587E+02 -0.35738E+02 -0.34451E+01  0.10987E+01  0.13341E+02      982.00
  0.36893E+00  0.59201E+02    0.20000E+00  0.20000E+00 -0.40000E+00  0.00000E+00  0.00000E+00  0.00000E+00    0.20271E+02  0.15641E+02 -0.35911E+02 -0.34427E+01  0.10708E+01  0.13515E+02      982.00
  0.39168E+00  0.59533E+02    0.21250E+00  0.21250E+00 -0.42500E+00  0.00000E+00  0.00000E+00  0.00000E+00    0.20377E+02  0.15699E+02 -0.36076E+02 -0.34289E+01  0.10676E+01  0.13673E+02      982.00
  0.41441E+00  0.59856E+02    0.22500E+00  0.22500E+00 -0.45000E+00  0.00000E+00  0.00000E+00  0.00000E+00    0.20475E+02  0.15756E+02 -0.36231E+02 -0.34078E+01  0.10687E+01  0.13835E+02      982.00
  0.43710E+00  0.60144E+02    0.23750E+00  0.23750E+00 -0.47500E+00  0.00000E+00  0.00000E+00  0.00000E+00    0.20558E+02  0.15814E+02 -0.36372E+02 -0.33782E+01  0.10895E+01  0.13976E+02      982.00
  0.45978E+00  0.60453E+02    0.25000E+00  0.25000E+00 -0.50000E+00  0.00000E+00  0.00000E+00  0.00000E+00    0.20640E+02  0.15880E+02 -0.36521E+02 -0.33325E+01  0.11203E+01  0.14136E+02      982.00
  0.48244E+00  0.60710E+02    0.26250E+00  0.26250E+00 -0.52500E+00  0.00000E+00  0.00000E+00  0.00000E+00    0.20706E+02  0.15940E+02 -0.36646E+02 -0.32892E+01  0.11608E+01  0.14267E+02      982.00
  0.50507E+00  0.60950E+02    0.27500E+00  0.27500E+00 -0.55000E+00  0.00000E+00  0.00000E+00  0.00000E+00    0.20760E+02  0.16000E+02 -0.36760E+02 -0.32378E+01  0.12116E+01  0.14393E+02      982.00
  0.52769E+00  0.61151E+02    0.28750E+00  0.28750E+00 -0.57500E+00  0.00000E+00  0.00000E+00  0.00000E+00    0.20803E+02  0.16055E+02 -0.36858E+02 -0.31964E+01  0.12602E+01  0.14497E+02      982.00
  0.55029E+00  0.61375E+02    0.30000E+00  0.30000E+00 -0.60000E+00  0.00000E+00  0.00000E+00  0.00000E+00    0.20844E+02  0.16117E+02 -0.36961E+02 -0.31363E+01  0.13233E+01  0.14624E+02      982.00
  0.57288E+00  0.61582E+02    0.31250E+00  0.31250E+00 -0.62500E+00  0.00000E+00  0.00000E+00  0.00000E+00    0.20881E+02  0.16173E+02 -0.37055E+02 -0.30804E+01  0.13856E+01  0.14743E+02      982.00
  0.59544E+00  0.61796E+02    0.32500E+00  0.32500E+00 -0.65000E+00  0.00000E+00  0.00000E+00  0.00000E+00    0.20913E+02  0.16238E+02 -0.37151E+02 -0.30111E+01  0.14594E+01  0.14871E+02      982.00
  0.61798E+00  0.62003E+02    0.33750E+00  0.33750E+00 -0.67500E+00  0.00000E+00  0.00000E+00  0.00000E+00    0.20939E+02  0.16298E+02 -0.37236E+02 -0.29420E+01  0.15361E+01  0.15005E+02      982.00
  0.64050E+00  0.62199E+02    0.35000E+00  0.35000E+00 -0.70000E+00  0.00000E+00  0.00000E+00  0.00000E+00    0.20955E+02  0.16362E+02 -0.37317E+02 -0.28643E+01  0.16194E+01  0.15134E+02      982.00
  0.66300E+00  0.62387E+02    0.36250E+00  0.36250E+00 -0.72500E+00  0.00000E+00  0.00000E+00  0.00000E+00    0.20962E+02  0.16427E+02 -0.37389E+02 -0.27834E+01  0.17070E+01  0.15268E+02      982.00
  0.68548E+00  0.62582E+02    0.37500E+00  0.37500E+00 -0.75000E+00  0.00000E+00  0.00000E+00  0.00000E+00    0.20966E+02  0.16498E+02 -0.37465E+02 -0.27003E+01  0.17983E+01  0.15405E+02      982.00
  0.70793E+00  0.62763E+02    0.38750E+00  0.38750E+00 -0.77500E+00  0.00000E+00  0.00000E+00  0.00000E+00    0.20959E+02  0.16570E+02 -0.37530E+02 -0.26154E+01  0.18912E+01  0.15539E+02      982.00
  0.73035E+00  0.62956E+02    0.40000E+00  0.40000E+00 -0.80000E+00  0.00000E+00  0.00000E+00  0.00000E+00    0.20947E+02  0.16648E+02 -0.37595E+02 -0.25370E+01  0.19799E+01  0.15690E+02      982.00
  0.75274E+00  0.63131E+02    0.41250E+00  0.41250E+00 -0.82500E+00  0.00000E+00  0.00000E+00  0.00000E+00    0.20921E+02  0.16729E+02 -0.37651E+02 -0.24554E+01  0.20710E+01  0.15831E+02      982.00
  0.77511E+00  0.63302E+02    0.42500E+00  0.42500E+00 -0.85000E+00  0.00000E+00  0.00000E+00  0.00000E+00    0.20886E+02  0.16816E+02 -0.37702E+02 -0.23788E+01  0.21574E+01  0.15974E+02      982.00
  0.79744E+00  0.63465E+02    0.43750E+00  0.43750E+00 -0.87500E+00  0.00000E+00  0.00000E+00  0.00000E+00    0.20838E+02  0.16909E+02 -0.37747E+02 -0.23076E+01  0.22386E+01  0.16118E+02      982.00
  0.81975E+00  0.63623E+02    0.45000E+00  0.45000E+00 -0.90000E+00  0.00000E+00  0.00000E+00  0.00000E+00    0.20776E+02  0.17010E+02 -0.37786E+02 -0.22455E+01  0.23091E+01  0.16265E+02      982.00
  0.84202E+00  0.63780E+02    0.46250E+00  0.46250E+00 -0.92500E+00  0.00000E+00  0.00000E+00  0.00000E+00    0.20703E+02  0.17120E+02 -0.37823E+02 -0.21953E+01  0.23673E+01  0.16413E+02      982.00
  0.86426E+00  0.63881E+02    0.47500E+00  0.47500E+00 -0.95000E+00  0.00000E+00  0.00000E+00  0.00000E+00    0.20605E+02  0.17223E+02 -0.37828E+02 -0.21498E+01  0.24069E+01  0.16546E+02      982.00
  0.88646E+00  0.63988E+02    0.48750E+00  0.48750E+00 -0.97500E+00  0.00000E+00  0.00000E+00  0.00000E+00    0.20492E+02  0.17344E+02 -0.37836E+02 -0.21258E+01  0.24225E+01  0.16681E+02      982.00
  0.90864E+00  0.64062E+02    0.50000E+00  0.50000E+00 -0.10000E+01  0.00000E+00  0.00000E+00  0.00000E+00    0.20361E+02  0.17473E+02 -0.37834E+02 -0.21195E+01  0.24123E+01  0.16793E+02      982.00
