          Evm          Svm            E11          E22          E33          E23          E13          E12         SDEV11       SDEV22       SDEV33       SDEV23       SDEV13       SDEV12      TEMP
  0.00000E+00  0.57549E+02    0.00000E+00  0.00000E+00  0.00000E+00  0.00000E+00  0.00000E+00  0.00000E+00    0.19723E+02  0.15449E+02 -0.35172E+02 -0.10817E+01  0.42047E+01  0.12359E+02      982.00
  0.22919E-01  0.57552E+02    0.12500E-01  0.12500E-01 -0.25000E-01  0.00000E+00  0.00000E+00  0.00000E+00    0.19222E+02  0.15912E+02 -0.35134E+02 -0.13791E+01  0.38656E+01  0.12597E+02      982.00
  0.45811E-01  0.57644E+02    0.25000E-01  0.25000E-01 -0.50000E-01  0.00000E+00  0.00000E+00  0.00000E+00    0.18856E+02  0.16269E+02 -0.35125E+02 -0.16021E+01  0.36097E+01  0.12844E+02      982.00
  0.68662E-01  0.57822E+02    0.37500E-01  0.37500E-01 -0.75000E-01  0.00000E+00  0.00000E+00  0.00000E+00    0.18591E+02  0.16561E+02 -0.35152E+02 -0.17786E+01  0.33950E+01  0.13114E+02      982.00
  0.91460E-01  0.58073E+02    0.50000E-01  0.50000E-01 -0.10000E+00  0.00000E+00  0.00000E+00  0.00000E+00    0.18411E+02  0.16800E+02 -0.35210E+02 -0.19160E+01  0.32098E+01  0.13406E+02      982.00
  0.11420E+00  0.58381E+02    0.62500E-01  0.62500E-01 -0.12500E+00  0.00000E+00  0.00000E+00  0.00000E+00    0.18296E+02  0.16999E+02 -0.35295E+02 -0.20196E+01  0.30468E+01  0.13713E+02      982.00
  0.13687E+00  0.58729E+02    0.75000E-01  0.75000E-01 -0.15000E+00  0.00000E+00  0.00000E+00  0.00000E+00    0.18232E+02  0.17167E+02 -0.35400E+02 -0.20946E+01  0.29015E+01  0.14026E+02      982.00
  0.15947E+00  0.59101E+02    0.87500E-01  0.87500E-01 -0.17500E+00  0.00000E+00  0.00000E+00  0.00000E+00    0.18201E+02  0.17318E+02 -0.35518E+02 -0.21496E+01  0.27683E+01  0.14341E+02      982.00
  0.18201E+00  0.59493E+02    0.10000E+00  0.10000E+00 -0.20000E+00  0.00000E+00  0.00000E+00  0.00000E+00    0.18202E+02  0.17449E+02 -0.35651E+02 -0.21820E+01  0.26527E+01  0.14650E+02      982.00
  0.20448E+00  0.59882E+02    0.11250E+00  0.11250E+00 -0.22500E+00  0.00000E+00  0.00000E+00  0.00000E+00    0.18217E+02  0.17570E+02 -0.35787E+02 -0.22016E+01  0.25470E+01  0.14944E+02      982.00
  0.22689E+00  0.60274E+02    0.12500E+00  0.12500E+00 -0.25000E+00  0.00000E+00  0.00000E+00  0.00000E+00    0.18249E+02  0.17680E+02 -0.35929E+02 -0.22060E+01  0.24545E+01  0.15227E+02      982.00
  0.24924E+00  0.60649E+02    0.13750E+00  0.13750E+00 -0.27500E+00  0.00000E+00  0.00000E+00  0.00000E+00    0.18281E+02  0.17788E+02 -0.36069E+02 -0.22075E+01  0.23689E+01  0.15486E+02      982.00
  0.27155E+00  0.61020E+02    0.15000E+00  0.15000E+00 -0.30000E+00  0.00000E+00  0.00000E+00  0.00000E+00    0.18321E+02  0.17890E+02 -0.36211E+02 -0.21999E+01  0.22956E+01  0.15734E+02      982.00
  0.29380E+00  0.61364E+02    0.16250E+00  0.16250E+00 -0.32500E+00  0.00000E+00  0.00000E+00  0.00000E+00    0.18355E+02  0.17992E+02 -0.36347E+02 -0.21929E+01  0.22265E+01  0.15955E+02      982.00
  0.31601E+00  0.61699E+02    0.17500E+00  0.17500E+00 -0.35000E+00  0.00000E+00  0.00000E+00  0.00000E+00    0.18393E+02  0.18087E+02 -0.36481E+02 -0.21809E+01  0.21698E+01  0.16165E+02      982.00
  0.33818E+00  0.62006E+02    0.18750E+00  0.18750E+00 -0.37500E+00  0.00000E+00  0.00000E+00  0.00000E+00    0.18424E+02  0.18182E+02 -0.36607E+02 -0.21700E+01  0.21138E+01  0.16351E+02      982.00
  0.36032E+00  0.62285E+02    0.20000E+00  0.20000E+00 -0.40000E+00  0.00000E+00  0.00000E+00  0.00000E+00    0.18457E+02  0.18267E+02 -0.36723E+02 -0.21575E+01  0.20743E+01  0.16514E+02      982.00
  0.38243E+00  0.62561E+02    0.21250E+00  0.21250E+00 -0.42500E+00  0.00000E+00  0.00000E+00  0.00000E+00    0.18489E+02  0.18351E+02 -0.36840E+02 -0.21453E+01  0.20371E+01  0.16673E+02      982.00
  0.40451E+00  0.62816E+02    0.22500E+00  0.22500E+00 -0.45000E+00  0.00000E+00  0.00000E+00  0.00000E+00    0.18519E+02  0.18431E+02 -0.36949E+02 -0.21340E+01  0.20045E+01  0.16816E+02      982.00
  0.42657E+00  0.63033E+02    0.23750E+00  0.23750E+00 -0.47500E+00  0.00000E+00  0.00000E+00  0.00000E+00    0.18537E+02  0.18506E+02 -0.37043E+02 -0.21232E+01  0.19693E+01  0.16937E+02      982.00
  0.44861E+00  0.63253E+02    0.25000E+00  0.25000E+00 -0.50000E+00  0.00000E+00  0.00000E+00  0.00000E+00    0.18562E+02  0.18577E+02 -0.37140E+02 -0.21138E+01  0.19450E+01  0.17055E+02      982.00
  0.47063E+00  0.63446E+02    0.26250E+00  0.26250E+00 -0.52500E+00  0.00000E+00  0.00000E+00  0.00000E+00    0.18584E+02  0.18642E+02 -0.37226E+02 -0.21044E+01  0.19228E+01  0.17156E+02      982.00
  0.49263E+00  0.63633E+02    0.27500E+00  0.27500E+00 -0.55000E+00  0.00000E+00  0.00000E+00  0.00000E+00    0.18607E+02  0.18704E+02 -0.37311E+02 -0.20964E+01  0.19044E+01  0.17251E+02      982.00
  0.51462E+00  0.63798E+02    0.28750E+00  0.28750E+00 -0.57500E+00  0.00000E+00  0.00000E+00  0.00000E+00    0.18621E+02  0.18764E+02 -0.37385E+02 -0.20871E+01  0.18810E+01  0.17338E+02      982.00
  0.53660E+00  0.63976E+02    0.30000E+00  0.30000E+00 -0.60000E+00  0.00000E+00  0.00000E+00  0.00000E+00    0.18639E+02  0.18826E+02 -0.37465E+02 -0.20770E+01  0.18579E+01  0.17430E+02      982.00
  0.55856E+00  0.64120E+02    0.31250E+00  0.31250E+00 -0.62500E+00  0.00000E+00  0.00000E+00  0.00000E+00    0.18658E+02  0.18875E+02 -0.37533E+02 -0.20716E+01  0.18454E+01  0.17498E+02      982.00
  0.58051E+00  0.64252E+02    0.32500E+00  0.32500E+00 -0.65000E+00  0.00000E+00  0.00000E+00  0.00000E+00    0.18677E+02  0.18919E+02 -0.37596E+02 -0.20667E+01  0.18352E+01  0.17560E+02      982.00
  0.60245E+00  0.64337E+02    0.33750E+00  0.33750E+00 -0.67500E+00  0.00000E+00  0.00000E+00  0.00000E+00    0.18695E+02  0.18945E+02 -0.37640E+02 -0.20658E+01  0.18354E+01  0.17594E+02      982.00
  0.62439E+00  0.64480E+02    0.35000E+00  0.35000E+00 -0.70000E+00  0.00000E+00  0.00000E+00  0.00000E+00    0.18709E+02  0.18993E+02 -0.37702E+02 -0.20567E+01  0.18141E+01  0.17670E+02      982.00
  0.64632E+00  0.64589E+02    0.36250E+00  0.36250E+00 -0.72500E+00  0.00000E+00  0.00000E+00  0.00000E+00    0.18728E+02  0.19029E+02 -0.37757E+02 -0.20529E+01  0.18050E+01  0.17717E+02      982.00
  0.66824E+00  0.64684E+02    0.37500E+00  0.37500E+00 -0.75000E+00  0.00000E+00  0.00000E+00  0.00000E+00    0.18746E+02  0.19057E+02 -0.37804E+02 -0.20504E+01  0.17982E+01  0.17758E+02      982.00
  0.69015E+00  0.64773E+02    0.38750E+00  0.38750E+00 -0.77500E+00  0.00000E+00  0.00000E+00  0.00000E+00    0.18765E+02  0.19083E+02 -0.37848E+02 -0.20482E+01  0.17925E+01  0.17796E+02      982.00
  0.71207E+00  0.64856E+02    0.40000E+00  0.40000E+00 -0.80000E+00  0.00000E+00  0.00000E+00  0.00000E+00    0.18784E+02  0.19106E+02 -0.37890E+02 -0.20464E+01  0.17873E+01  0.17831E+02      982.00
  0.73397E+00  0.64933E+02    0.41250E+00  0.41250E+00 -0.82500E+00  0.00000E+00  0.00000E+00  0.00000E+00    0.18803E+02  0.19126E+02 -0.37929E+02 -0.20449E+01  0.17825E+01  0.17864E+02      982.00
  0.75588E+00  0.65047E+02    0.42500E+00  0.42500E+00 -0.85000E+00  0.00000E+00  0.00000E+00  0.00000E+00    0.18830E+02  0.19153E+02 -0.37984E+02 -0.20408E+01  0.17703E+01  0.17915E+02      982.00
  0.77778E+00  0.65072E+02    0.43750E+00  0.43750E+00 -0.87500E+00  0.00000E+00  0.00000E+00  0.00000E+00    0.18840E+02  0.19160E+02 -0.37999E+02 -0.20424E+01  0.17717E+01  0.17921E+02      982.00
  0.79967E+00  0.65170E+02    0.45000E+00  0.45000E+00 -0.90000E+00  0.00000E+00  0.00000E+00  0.00000E+00    0.18868E+02  0.19179E+02 -0.38047E+02 -0.20405E+01  0.17626E+01  0.17965E+02      982.00
  0.82157E+00  0.65226E+02    0.46250E+00  0.46250E+00 -0.92500E+00  0.00000E+00  0.00000E+00  0.00000E+00    0.18887E+02  0.19188E+02 -0.38075E+02 -0.20398E+01  0.17570E+01  0.17987E+02      982.00
  0.84346E+00  0.65278E+02    0.47500E+00  0.47500E+00 -0.95000E+00  0.00000E+00  0.00000E+00  0.00000E+00    0.18906E+02  0.19196E+02 -0.38103E+02 -0.20403E+01  0.17532E+01  0.18008E+02      982.00
  0.86535E+00  0.65327E+02    0.48750E+00  0.48750E+00 -0.97500E+00  0.00000E+00  0.00000E+00  0.00000E+00    0.18926E+02  0.19202E+02 -0.38128E+02 -0.20413E+01  0.17502E+01  0.18027E+02      982.00
  0.88723E+00  0.65315E+02    0.50000E+00  0.50000E+00 -0.10000E+01  0.00000E+00  0.00000E+00  0.00000E+00    0.18917E+02  0.19207E+02 -0.38123E+02 -0.20456E+01  0.17550E+01  0.18019E+02      982.00
