          Evm          Svm            E11          E22          E33          E23          E13          E12         SDEV11       SDEV22       SDEV33       SDEV23       SDEV13       SDEV12      TEMP
  0.00000E+00  0.63098E+02    0.00000E+00  0.00000E+00  0.00000E+00  0.00000E+00  0.00000E+00  0.00000E+00    0.19364E+02  0.21005E+02 -0.40369E+02  0.26567E+01 -0.36515E+01  0.91554E+01      982.00
  0.23992E-01  0.63063E+02    0.12500E-01  0.12500E-01 -0.25000E-01  0.00000E+00  0.00000E+00  0.00000E+00    0.19074E+02  0.21262E+02 -0.40336E+02  0.27378E+01 -0.34784E+01  0.91974E+01      982.00
  0.47977E-01  0.63067E+02    0.25000E-01  0.25000E-01 -0.50000E-01  0.00000E+00  0.00000E+00  0.00000E+00    0.18895E+02  0.21427E+02 -0.40321E+02  0.28102E+01 -0.33356E+01  0.92650E+01      982.00
  0.71953E-01  0.63108E+02    0.37500E-01  0.37500E-01 -0.75000E-01  0.00000E+00  0.00000E+00  0.00000E+00    0.18752E+02  0.21572E+02 -0.40324E+02  0.28655E+01 -0.32230E+01  0.93522E+01      982.00
  0.95914E-01  0.63187E+02    0.50000E-01  0.50000E-01 -0.10000E+00  0.00000E+00  0.00000E+00  0.00000E+00    0.18646E+02  0.21700E+02 -0.40345E+02  0.29078E+01 -0.31359E+01  0.94576E+01      982.00
  0.11986E+00  0.63301E+02    0.62500E-01  0.62500E-01 -0.12500E+00  0.00000E+00  0.00000E+00  0.00000E+00    0.18571E+02  0.21815E+02 -0.40386E+02  0.29400E+01 -0.30690E+01  0.95785E+01      982.00
  0.14378E+00  0.63445E+02    0.75000E-01  0.75000E-01 -0.15000E+00  0.00000E+00  0.00000E+00  0.00000E+00    0.18522E+02  0.21920E+02 -0.40442E+02  0.29637E+01 -0.30172E+01  0.97125E+01      982.00
  0.16769E+00  0.63633E+02    0.87500E-01  0.87500E-01 -0.17500E+00  0.00000E+00  0.00000E+00  0.00000E+00    0.18498E+02  0.22021E+02 -0.40519E+02  0.29804E+01 -0.29756E+01  0.98753E+01      982.00
  0.19156E+00  0.63844E+02    0.10000E+00  0.10000E+00 -0.20000E+00  0.00000E+00  0.00000E+00  0.00000E+00    0.18504E+02  0.22109E+02 -0.40614E+02  0.30022E+01 -0.29524E+01  0.10031E+02      982.00
  0.21542E+00  0.64078E+02    0.11250E+00  0.11250E+00 -0.22500E+00  0.00000E+00  0.00000E+00  0.00000E+00    0.18525E+02  0.22193E+02 -0.40719E+02  0.30181E+01 -0.29334E+01  0.10202E+02      982.00
  0.23925E+00  0.64326E+02    0.12500E+00  0.12500E+00 -0.25000E+00  0.00000E+00  0.00000E+00  0.00000E+00    0.18568E+02  0.22268E+02 -0.40836E+02  0.30413E+01 -0.29304E+01  0.10358E+02      982.00
  0.26306E+00  0.64560E+02    0.13750E+00  0.13750E+00 -0.27500E+00  0.00000E+00  0.00000E+00  0.00000E+00    0.18621E+02  0.22330E+02 -0.40951E+02  0.30679E+01 -0.29386E+01  0.10492E+02      982.00
  0.28684E+00  0.64821E+02    0.15000E+00  0.15000E+00 -0.30000E+00  0.00000E+00  0.00000E+00  0.00000E+00    0.18687E+02  0.22393E+02 -0.41080E+02  0.30920E+01 -0.29490E+01  0.10641E+02      982.00
  0.31061E+00  0.65086E+02    0.16250E+00  0.16250E+00 -0.32500E+00  0.00000E+00  0.00000E+00  0.00000E+00    0.18762E+02  0.22450E+02 -0.41212E+02  0.31176E+01 -0.29656E+01  0.10785E+02      982.00
  0.33435E+00  0.65344E+02    0.17500E+00  0.17500E+00 -0.35000E+00  0.00000E+00  0.00000E+00  0.00000E+00    0.18844E+02  0.22499E+02 -0.41342E+02  0.31422E+01 -0.29857E+01  0.10920E+02      982.00
  0.35808E+00  0.65593E+02    0.18750E+00  0.18750E+00 -0.37500E+00  0.00000E+00  0.00000E+00  0.00000E+00    0.18930E+02  0.22540E+02 -0.41469E+02  0.31665E+01 -0.30090E+01  0.11047E+02      982.00
  0.38179E+00  0.65832E+02    0.20000E+00  0.20000E+00 -0.40000E+00  0.00000E+00  0.00000E+00  0.00000E+00    0.19019E+02  0.22573E+02 -0.41592E+02  0.31900E+01 -0.30347E+01  0.11166E+02      982.00
  0.40548E+00  0.66078E+02    0.21250E+00  0.21250E+00 -0.42500E+00  0.00000E+00  0.00000E+00  0.00000E+00    0.19114E+02  0.22605E+02 -0.41719E+02  0.32157E+01 -0.30649E+01  0.11282E+02      982.00
  0.42915E+00  0.66289E+02    0.22500E+00  0.22500E+00 -0.45000E+00  0.00000E+00  0.00000E+00  0.00000E+00    0.19205E+02  0.22623E+02 -0.41829E+02  0.32368E+01 -0.30932E+01  0.11382E+02      982.00
  0.45282E+00  0.66479E+02    0.23750E+00  0.23750E+00 -0.47500E+00  0.00000E+00  0.00000E+00  0.00000E+00    0.19293E+02  0.22635E+02 -0.41929E+02  0.32544E+01 -0.31194E+01  0.11470E+02      982.00
  0.47647E+00  0.66665E+02    0.25000E+00  0.25000E+00 -0.50000E+00  0.00000E+00  0.00000E+00  0.00000E+00    0.19382E+02  0.22643E+02 -0.42025E+02  0.32732E+01 -0.31485E+01  0.11556E+02      982.00
  0.50011E+00  0.66836E+02    0.26250E+00  0.26250E+00 -0.52500E+00  0.00000E+00  0.00000E+00  0.00000E+00    0.19469E+02  0.22645E+02 -0.42114E+02  0.32908E+01 -0.31776E+01  0.11635E+02      982.00
  0.52374E+00  0.66993E+02    0.27500E+00  0.27500E+00 -0.55000E+00  0.00000E+00  0.00000E+00  0.00000E+00    0.19552E+02  0.22643E+02 -0.42195E+02  0.33074E+01 -0.32065E+01  0.11708E+02      982.00
  0.54736E+00  0.67118E+02    0.28750E+00  0.28750E+00 -0.57500E+00  0.00000E+00  0.00000E+00  0.00000E+00    0.19637E+02  0.22623E+02 -0.42260E+02  0.33191E+01 -0.32312E+01  0.11769E+02      982.00
  0.57097E+00  0.67253E+02    0.30000E+00  0.30000E+00 -0.60000E+00  0.00000E+00  0.00000E+00  0.00000E+00    0.19716E+02  0.22614E+02 -0.42330E+02  0.33341E+01 -0.32597E+01  0.11831E+02      982.00
  0.59457E+00  0.67376E+02    0.31250E+00  0.31250E+00 -0.62500E+00  0.00000E+00  0.00000E+00  0.00000E+00    0.19790E+02  0.22603E+02 -0.42393E+02  0.33481E+01 -0.32876E+01  0.11888E+02      982.00
  0.61817E+00  0.67486E+02    0.32500E+00  0.32500E+00 -0.65000E+00  0.00000E+00  0.00000E+00  0.00000E+00    0.19860E+02  0.22589E+02 -0.42449E+02  0.33602E+01 -0.33139E+01  0.11939E+02      982.00
  0.64175E+00  0.67589E+02    0.33750E+00  0.33750E+00 -0.67500E+00  0.00000E+00  0.00000E+00  0.00000E+00    0.19928E+02  0.22574E+02 -0.42501E+02  0.33728E+01 -0.33406E+01  0.11988E+02      982.00
  0.66533E+00  0.67668E+02    0.35000E+00  0.35000E+00 -0.70000E+00  0.00000E+00  0.00000E+00  0.00000E+00    0.19997E+02  0.22544E+02 -0.42541E+02  0.33825E+01 -0.33658E+01  0.12026E+02      982.00
  0.68891E+00  0.67757E+02    0.36250E+00  0.36250E+00 -0.72500E+00  0.00000E+00  0.00000E+00  0.00000E+00    0.20058E+02  0.22527E+02 -0.42586E+02  0.33943E+01 -0.33918E+01  0.12069E+02      982.00
  0.71248E+00  0.67838E+02    0.37500E+00  0.37500E+00 -0.75000E+00  0.00000E+00  0.00000E+00  0.00000E+00    0.20115E+02  0.22510E+02 -0.42625E+02  0.34054E+01 -0.34167E+01  0.12109E+02      982.00
  0.73604E+00  0.67911E+02    0.38750E+00  0.38750E+00 -0.77500E+00  0.00000E+00  0.00000E+00  0.00000E+00    0.20167E+02  0.22493E+02 -0.42660E+02  0.34162E+01 -0.34411E+01  0.12146E+02      982.00
  0.75960E+00  0.67978E+02    0.40000E+00  0.40000E+00 -0.80000E+00  0.00000E+00  0.00000E+00  0.00000E+00    0.20217E+02  0.22475E+02 -0.42692E+02  0.34268E+01 -0.34649E+01  0.12181E+02      982.00
  0.78315E+00  0.68034E+02    0.41250E+00  0.41250E+00 -0.82500E+00  0.00000E+00  0.00000E+00  0.00000E+00    0.20273E+02  0.22446E+02 -0.42719E+02  0.34366E+01 -0.34909E+01  0.12208E+02      982.00
  0.80669E+00  0.68092E+02    0.42500E+00  0.42500E+00 -0.85000E+00  0.00000E+00  0.00000E+00  0.00000E+00    0.20317E+02  0.22428E+02 -0.42745E+02  0.34469E+01 -0.35144E+01  0.12239E+02      982.00
  0.83024E+00  0.68143E+02    0.43750E+00  0.43750E+00 -0.87500E+00  0.00000E+00  0.00000E+00  0.00000E+00    0.20357E+02  0.22411E+02 -0.42768E+02  0.34569E+01 -0.35367E+01  0.12268E+02      982.00
  0.85377E+00  0.68190E+02    0.45000E+00  0.45000E+00 -0.90000E+00  0.00000E+00  0.00000E+00  0.00000E+00    0.20394E+02  0.22394E+02 -0.42788E+02  0.34669E+01 -0.35586E+01  0.12295E+02      982.00
  0.87730E+00  0.68233E+02    0.46250E+00  0.46250E+00 -0.92500E+00  0.00000E+00  0.00000E+00  0.00000E+00    0.20429E+02  0.22377E+02 -0.42806E+02  0.34769E+01 -0.35800E+01  0.12321E+02      982.00
  0.90083E+00  0.68273E+02    0.47500E+00  0.47500E+00 -0.95000E+00  0.00000E+00  0.00000E+00  0.00000E+00    0.20461E+02  0.22361E+02 -0.42822E+02  0.34869E+01 -0.36010E+01  0.12346E+02      982.00
  0.92435E+00  0.68310E+02    0.48750E+00  0.48750E+00 -0.97500E+00  0.00000E+00  0.00000E+00  0.00000E+00    0.20491E+02  0.22345E+02 -0.42836E+02  0.34968E+01 -0.36215E+01  0.12370E+02      982.00
  0.94786E+00  0.68310E+02    0.50000E+00  0.50000E+00 -0.10000E+01  0.00000E+00  0.00000E+00  0.00000E+00    0.20485E+02  0.22348E+02 -0.42833E+02  0.34867E+01 -0.36150E+01  0.12383E+02      982.00
