          Evm          Svm            E11          E22          E33          E23          E13          E12         SDEV11       SDEV22       SDEV33       SDEV23       SDEV13       SDEV12      TEMP
  0.00000E+00  0.54414E+02    0.00000E+00  0.00000E+00  0.00000E+00  0.00000E+00  0.00000E+00  0.00000E+00    0.13215E+02  0.20039E+02 -0.33254E+02 -0.60821E+01 -0.44076E+01 -0.94628E+01      982.00
  0.22917E-01  0.54883E+02    0.12500E-01  0.12500E-01 -0.25000E-01  0.00000E+00  0.00000E+00  0.00000E+00    0.13713E+02  0.19782E+02 -0.33495E+02 -0.63428E+01 -0.45261E+01 -0.96278E+01      982.00
  0.45803E-01  0.55311E+02    0.25000E-01  0.25000E-01 -0.50000E-01  0.00000E+00  0.00000E+00  0.00000E+00    0.14124E+02  0.19617E+02 -0.33741E+02 -0.65344E+01 -0.45663E+01 -0.97386E+01      982.00
  0.68679E-01  0.55719E+02    0.37500E-01  0.37500E-01 -0.75000E-01  0.00000E+00  0.00000E+00  0.00000E+00    0.14465E+02  0.19528E+02 -0.33992E+02 -0.66670E+01 -0.45736E+01 -0.98218E+01      982.00
  0.91557E-01  0.56118E+02    0.50000E-01  0.50000E-01 -0.10000E+00  0.00000E+00  0.00000E+00  0.00000E+00    0.14750E+02  0.19501E+02 -0.34251E+02 -0.67515E+01 -0.45642E+01 -0.98916E+01      982.00
  0.11444E+00  0.56522E+02    0.62500E-01  0.62500E-01 -0.12500E+00  0.00000E+00  0.00000E+00  0.00000E+00    0.14989E+02  0.19531E+02 -0.34520E+02 -0.67977E+01 -0.45453E+01 -0.99585E+01      982.00
  0.13735E+00  0.56944E+02    0.75000E-01  0.75000E-01 -0.15000E+00  0.00000E+00  0.00000E+00  0.00000E+00    0.15195E+02  0.19606E+02 -0.34801E+02 -0.68195E+01 -0.45232E+01 -0.10036E+02      982.00
  0.16026E+00  0.57394E+02    0.87500E-01  0.87500E-01 -0.17500E+00  0.00000E+00  0.00000E+00  0.00000E+00    0.15367E+02  0.19738E+02 -0.35105E+02 -0.68120E+01 -0.44938E+01 -0.10117E+02      982.00
  0.18320E+00  0.57878E+02    0.10000E+00  0.10000E+00 -0.20000E+00  0.00000E+00  0.00000E+00  0.00000E+00    0.15517E+02  0.19914E+02 -0.35432E+02 -0.67886E+01 -0.44659E+01 -0.10207E+02      982.00
  0.20616E+00  0.58291E+02    0.11250E+00  0.11250E+00 -0.22500E+00  0.00000E+00  0.00000E+00  0.00000E+00    0.15641E+02  0.20087E+02 -0.35728E+02 -0.67334E+01 -0.44325E+01 -0.10264E+02      982.00
  0.22914E+00  0.58727E+02    0.12500E+00  0.12500E+00 -0.25000E+00  0.00000E+00  0.00000E+00  0.00000E+00    0.15774E+02  0.20262E+02 -0.36036E+02 -0.66751E+01 -0.44112E+01 -0.10325E+02      982.00
  0.25215E+00  0.59207E+02    0.13750E+00  0.13750E+00 -0.27500E+00  0.00000E+00  0.00000E+00  0.00000E+00    0.15899E+02  0.20469E+02 -0.36367E+02 -0.66150E+01 -0.43921E+01 -0.10405E+02      982.00
  0.27519E+00  0.59705E+02    0.15000E+00  0.15000E+00 -0.30000E+00  0.00000E+00  0.00000E+00  0.00000E+00    0.16016E+02  0.20693E+02 -0.36709E+02 -0.65505E+01 -0.43769E+01 -0.10490E+02      982.00
  0.29824E+00  0.60196E+02    0.16250E+00  0.16250E+00 -0.32500E+00  0.00000E+00  0.00000E+00  0.00000E+00    0.16137E+02  0.20911E+02 -0.37048E+02 -0.64814E+01 -0.43664E+01 -0.10566E+02      982.00
  0.32132E+00  0.60687E+02    0.17500E+00  0.17500E+00 -0.35000E+00  0.00000E+00  0.00000E+00  0.00000E+00    0.16260E+02  0.21128E+02 -0.37388E+02 -0.64109E+01 -0.43607E+01 -0.10639E+02      982.00
  0.34443E+00  0.61202E+02    0.18750E+00  0.18750E+00 -0.37500E+00  0.00000E+00  0.00000E+00  0.00000E+00    0.16385E+02  0.21359E+02 -0.37744E+02 -0.63348E+01 -0.43610E+01 -0.10712E+02      982.00
  0.36755E+00  0.61679E+02    0.20000E+00  0.20000E+00 -0.40000E+00  0.00000E+00  0.00000E+00  0.00000E+00    0.16512E+02  0.21566E+02 -0.38078E+02 -0.62615E+01 -0.43635E+01 -0.10771E+02      982.00
  0.39071E+00  0.62147E+02    0.21250E+00  0.21250E+00 -0.42500E+00  0.00000E+00  0.00000E+00  0.00000E+00    0.16641E+02  0.21766E+02 -0.38407E+02 -0.61892E+01 -0.43692E+01 -0.10823E+02      982.00
  0.41388E+00  0.62600E+02    0.22500E+00  0.22500E+00 -0.45000E+00  0.00000E+00  0.00000E+00  0.00000E+00    0.16771E+02  0.21957E+02 -0.38727E+02 -0.61173E+01 -0.43770E+01 -0.10868E+02      982.00
  0.43708E+00  0.63038E+02    0.23750E+00  0.23750E+00 -0.47500E+00  0.00000E+00  0.00000E+00  0.00000E+00    0.16901E+02  0.22138E+02 -0.39039E+02 -0.60461E+01 -0.43859E+01 -0.10905E+02      982.00
  0.46030E+00  0.63433E+02    0.25000E+00  0.25000E+00 -0.50000E+00  0.00000E+00  0.00000E+00  0.00000E+00    0.17023E+02  0.22301E+02 -0.39324E+02 -0.59836E+01 -0.43878E+01 -0.10931E+02      982.00
  0.48355E+00  0.63838E+02    0.26250E+00  0.26250E+00 -0.52500E+00  0.00000E+00  0.00000E+00  0.00000E+00    0.17150E+02  0.22465E+02 -0.39616E+02 -0.59150E+01 -0.43968E+01 -0.10955E+02      982.00
  0.50682E+00  0.64223E+02    0.27500E+00  0.27500E+00 -0.55000E+00  0.00000E+00  0.00000E+00  0.00000E+00    0.17276E+02  0.22620E+02 -0.39896E+02 -0.58464E+01 -0.44058E+01 -0.10971E+02      982.00
  0.53012E+00  0.64589E+02    0.28750E+00  0.28750E+00 -0.57500E+00  0.00000E+00  0.00000E+00  0.00000E+00    0.17399E+02  0.22766E+02 -0.40165E+02 -0.57783E+01 -0.44143E+01 -0.10981E+02      982.00
  0.55344E+00  0.64936E+02    0.30000E+00  0.30000E+00 -0.60000E+00  0.00000E+00  0.00000E+00  0.00000E+00    0.17520E+02  0.22902E+02 -0.40422E+02 -0.57107E+01 -0.44219E+01 -0.10985E+02      982.00
  0.57678E+00  0.65263E+02    0.31250E+00  0.31250E+00 -0.62500E+00  0.00000E+00  0.00000E+00  0.00000E+00    0.17638E+02  0.23030E+02 -0.40668E+02 -0.56436E+01 -0.44284E+01 -0.10983E+02      982.00
  0.60015E+00  0.65553E+02    0.32500E+00  0.32500E+00 -0.65000E+00  0.00000E+00  0.00000E+00  0.00000E+00    0.17744E+02  0.23143E+02 -0.40887E+02 -0.55822E+01 -0.44327E+01 -0.10978E+02      982.00
  0.62354E+00  0.65846E+02    0.33750E+00  0.33750E+00 -0.67500E+00  0.00000E+00  0.00000E+00  0.00000E+00    0.17854E+02  0.23256E+02 -0.41110E+02 -0.55164E+01 -0.44367E+01 -0.10967E+02      982.00
  0.64695E+00  0.66121E+02    0.35000E+00  0.35000E+00 -0.70000E+00  0.00000E+00  0.00000E+00  0.00000E+00    0.17960E+02  0.23362E+02 -0.41322E+02 -0.54510E+01 -0.44399E+01 -0.10953E+02      982.00
  0.67039E+00  0.66379E+02    0.36250E+00  0.36250E+00 -0.72500E+00  0.00000E+00  0.00000E+00  0.00000E+00    0.18062E+02  0.23461E+02 -0.41523E+02 -0.53863E+01 -0.44419E+01 -0.10935E+02      982.00
  0.69384E+00  0.66621E+02    0.37500E+00  0.37500E+00 -0.75000E+00  0.00000E+00  0.00000E+00  0.00000E+00    0.18159E+02  0.23554E+02 -0.41713E+02 -0.53223E+01 -0.44429E+01 -0.10914E+02      982.00
  0.71732E+00  0.66847E+02    0.38750E+00  0.38750E+00 -0.77500E+00  0.00000E+00  0.00000E+00  0.00000E+00    0.18252E+02  0.23641E+02 -0.41893E+02 -0.52591E+01 -0.44429E+01 -0.10890E+02      982.00
  0.74082E+00  0.67060E+02    0.40000E+00  0.40000E+00 -0.80000E+00  0.00000E+00  0.00000E+00  0.00000E+00    0.18340E+02  0.23723E+02 -0.42063E+02 -0.51967E+01 -0.44420E+01 -0.10865E+02      982.00
  0.76435E+00  0.67259E+02    0.41250E+00  0.41250E+00 -0.82500E+00  0.00000E+00  0.00000E+00  0.00000E+00    0.18422E+02  0.23801E+02 -0.42224E+02 -0.51351E+01 -0.44404E+01 -0.10838E+02      982.00
  0.78789E+00  0.67445E+02    0.42500E+00  0.42500E+00 -0.85000E+00  0.00000E+00  0.00000E+00  0.00000E+00    0.18500E+02  0.23875E+02 -0.42375E+02 -0.50745E+01 -0.44381E+01 -0.10809E+02      982.00
  0.81145E+00  0.67619E+02    0.43750E+00  0.43750E+00 -0.87500E+00  0.00000E+00  0.00000E+00  0.00000E+00    0.18573E+02  0.23946E+02 -0.42518E+02 -0.50148E+01 -0.44354E+01 -0.10780E+02      982.00
  0.83503E+00  0.67790E+02    0.45000E+00  0.45000E+00 -0.90000E+00  0.00000E+00  0.00000E+00  0.00000E+00    0.18639E+02  0.24018E+02 -0.42657E+02 -0.49647E+01 -0.44281E+01 -0.10752E+02      982.00
  0.85863E+00  0.67867E+02    0.46250E+00  0.46250E+00 -0.92500E+00  0.00000E+00  0.00000E+00  0.00000E+00    0.18682E+02  0.24064E+02 -0.42745E+02 -0.48847E+01 -0.43977E+01 -0.10701E+02      982.00
  0.88224E+00  0.67942E+02    0.47500E+00  0.47500E+00 -0.95000E+00  0.00000E+00  0.00000E+00  0.00000E+00    0.18723E+02  0.24106E+02 -0.42829E+02 -0.48092E+01 -0.43729E+01 -0.10652E+02      982.00
  0.90588E+00  0.68013E+02    0.48750E+00  0.48750E+00 -0.97500E+00  0.00000E+00  0.00000E+00  0.00000E+00    0.18761E+02  0.24147E+02 -0.42908E+02 -0.47358E+01 -0.43491E+01 -0.10606E+02      982.00
  0.92954E+00  0.68079E+02    0.50000E+00  0.50000E+00 -0.10000E+01  0.00000E+00  0.00000E+00  0.00000E+00    0.18795E+02  0.24187E+02 -0.42982E+02 -0.46646E+01 -0.43261E+01 -0.10563E+02      982.00
