          Evm          Svm            E11          E22          E33          E23          E13          E12         SDEV11       SDEV22       SDEV33       SDEV23       SDEV13       SDEV12      TEMP
  0.00000E+00  0.62988E+02    0.00000E+00  0.00000E+00  0.00000E+00  0.00000E+00  0.00000E+00  0.00000E+00    0.14434E+02  0.25977E+02 -0.40411E+02 -0.24918E+01  0.55052E+01 -0.52816E+01      982.00
  0.24059E-01  0.62905E+02    0.12500E-01  0.12500E-01 -0.25000E-01  0.00000E+00  0.00000E+00  0.00000E+00    0.14337E+02  0.26018E+02 -0.40355E+02 -0.25003E+01  0.54313E+01 -0.52665E+01      982.00
  0.48116E-01  0.62870E+02    0.25000E-01  0.25000E-01 -0.50000E-01  0.00000E+00  0.00000E+00  0.00000E+00    0.14248E+02  0.26078E+02 -0.40326E+02 -0.25137E+01  0.53726E+01 -0.52633E+01      982.00
  0.72169E-01  0.62908E+02    0.37500E-01  0.37500E-01 -0.75000E-01  0.00000E+00  0.00000E+00  0.00000E+00    0.14164E+02  0.26176E+02 -0.40340E+02 -0.25196E+01  0.53290E+01 -0.52739E+01      982.00
  0.96217E-01  0.63011E+02    0.50000E-01  0.50000E-01 -0.10000E+00  0.00000E+00  0.00000E+00  0.00000E+00    0.14079E+02  0.26312E+02 -0.40392E+02 -0.25152E+01  0.52956E+01 -0.52962E+01      982.00
  0.12026E+00  0.63145E+02    0.62500E-01  0.62500E-01 -0.12500E+00  0.00000E+00  0.00000E+00  0.00000E+00    0.14008E+02  0.26455E+02 -0.40463E+02 -0.25001E+01  0.52756E+01 -0.53237E+01      982.00
  0.14429E+00  0.63356E+02    0.75000E-01  0.75000E-01 -0.15000E+00  0.00000E+00  0.00000E+00  0.00000E+00    0.13941E+02  0.26638E+02 -0.40579E+02 -0.24708E+01  0.52684E+01 -0.53678E+01      982.00
  0.16830E+00  0.63585E+02    0.87500E-01  0.87500E-01 -0.17500E+00  0.00000E+00  0.00000E+00  0.00000E+00    0.13882E+02  0.26826E+02 -0.40708E+02 -0.24325E+01  0.52620E+01 -0.54151E+01      982.00
  0.19231E+00  0.63849E+02    0.10000E+00  0.10000E+00 -0.20000E+00  0.00000E+00  0.00000E+00  0.00000E+00    0.13846E+02  0.27014E+02 -0.40861E+02 -0.23844E+01  0.52681E+01 -0.54687E+01      982.00
  0.21631E+00  0.64141E+02    0.11250E+00  0.11250E+00 -0.22500E+00  0.00000E+00  0.00000E+00  0.00000E+00    0.13812E+02  0.27218E+02 -0.41030E+02 -0.23241E+01  0.52749E+01 -0.55344E+01      982.00
  0.24030E+00  0.64441E+02    0.12500E+00  0.12500E+00 -0.25000E+00  0.00000E+00  0.00000E+00  0.00000E+00    0.13803E+02  0.27404E+02 -0.41208E+02 -0.22631E+01  0.52862E+01 -0.55972E+01      982.00
  0.26428E+00  0.64742E+02    0.13750E+00  0.13750E+00 -0.27500E+00  0.00000E+00  0.00000E+00  0.00000E+00    0.13805E+02  0.27584E+02 -0.41389E+02 -0.21995E+01  0.52971E+01 -0.56627E+01      982.00
  0.28825E+00  0.65042E+02    0.15000E+00  0.15000E+00 -0.30000E+00  0.00000E+00  0.00000E+00  0.00000E+00    0.13816E+02  0.27754E+02 -0.41569E+02 -0.21349E+01  0.53072E+01 -0.57313E+01      982.00
  0.31222E+00  0.65349E+02    0.16250E+00  0.16250E+00 -0.32500E+00  0.00000E+00  0.00000E+00  0.00000E+00    0.13824E+02  0.27928E+02 -0.41752E+02 -0.20558E+01  0.53169E+01 -0.58177E+01      982.00
  0.33618E+00  0.65615E+02    0.17500E+00  0.17500E+00 -0.35000E+00  0.00000E+00  0.00000E+00  0.00000E+00    0.13854E+02  0.28063E+02 -0.41917E+02 -0.20094E+01  0.53195E+01 -0.58743E+01      982.00
  0.36013E+00  0.65899E+02    0.18750E+00  0.18750E+00 -0.37500E+00  0.00000E+00  0.00000E+00  0.00000E+00    0.13875E+02  0.28212E+02 -0.42088E+02 -0.19355E+01  0.53236E+01 -0.59626E+01      982.00
  0.38408E+00  0.66148E+02    0.20000E+00  0.20000E+00 -0.40000E+00  0.00000E+00  0.00000E+00  0.00000E+00    0.13903E+02  0.28336E+02 -0.42240E+02 -0.18788E+01  0.53222E+01 -0.60370E+01      982.00
  0.40803E+00  0.66388E+02    0.21250E+00  0.21250E+00 -0.42500E+00  0.00000E+00  0.00000E+00  0.00000E+00    0.13934E+02  0.28453E+02 -0.42387E+02 -0.18256E+01  0.53181E+01 -0.61110E+01      982.00
  0.43197E+00  0.66592E+02    0.22500E+00  0.22500E+00 -0.45000E+00  0.00000E+00  0.00000E+00  0.00000E+00    0.13961E+02  0.28550E+02 -0.42511E+02 -0.17832E+01  0.53129E+01 -0.61771E+01      982.00
  0.45591E+00  0.66803E+02    0.23750E+00  0.23750E+00 -0.47500E+00  0.00000E+00  0.00000E+00  0.00000E+00    0.13993E+02  0.28647E+02 -0.42640E+02 -0.17365E+01  0.53053E+01 -0.62511E+01      982.00
  0.47985E+00  0.67002E+02    0.25000E+00  0.25000E+00 -0.50000E+00  0.00000E+00  0.00000E+00  0.00000E+00    0.14024E+02  0.28737E+02 -0.42761E+02 -0.16926E+01  0.52944E+01 -0.63243E+01      982.00
  0.50378E+00  0.67190E+02    0.26250E+00  0.26250E+00 -0.52500E+00  0.00000E+00  0.00000E+00  0.00000E+00    0.14055E+02  0.28821E+02 -0.42876E+02 -0.16509E+01  0.52827E+01 -0.63977E+01      982.00
  0.52771E+00  0.67364E+02    0.27500E+00  0.27500E+00 -0.55000E+00  0.00000E+00  0.00000E+00  0.00000E+00    0.14086E+02  0.28896E+02 -0.42982E+02 -0.16114E+01  0.52685E+01 -0.64704E+01      982.00
  0.55164E+00  0.67521E+02    0.28750E+00  0.28750E+00 -0.57500E+00  0.00000E+00  0.00000E+00  0.00000E+00    0.14114E+02  0.28962E+02 -0.43077E+02 -0.15734E+01  0.52534E+01 -0.65413E+01      982.00
  0.57556E+00  0.67671E+02    0.30000E+00  0.30000E+00 -0.60000E+00  0.00000E+00  0.00000E+00  0.00000E+00    0.14143E+02  0.29024E+02 -0.43168E+02 -0.15344E+01  0.52385E+01 -0.66120E+01      982.00
  0.59948E+00  0.67813E+02    0.31250E+00  0.31250E+00 -0.62500E+00  0.00000E+00  0.00000E+00  0.00000E+00    0.14172E+02  0.29082E+02 -0.43253E+02 -0.14993E+01  0.52198E+01 -0.66818E+01      982.00
  0.62340E+00  0.67944E+02    0.32500E+00  0.32500E+00 -0.65000E+00  0.00000E+00  0.00000E+00  0.00000E+00    0.14199E+02  0.29133E+02 -0.43333E+02 -0.14659E+01  0.52010E+01 -0.67499E+01      982.00
  0.64732E+00  0.68060E+02    0.33750E+00  0.33750E+00 -0.67500E+00  0.00000E+00  0.00000E+00  0.00000E+00    0.14223E+02  0.29180E+02 -0.43403E+02 -0.14419E+01  0.51884E+01 -0.68037E+01      982.00
  0.67123E+00  0.68175E+02    0.35000E+00  0.35000E+00 -0.70000E+00  0.00000E+00  0.00000E+00  0.00000E+00    0.14250E+02  0.29222E+02 -0.43472E+02 -0.14094E+01  0.51701E+01 -0.68695E+01      982.00
  0.69514E+00  0.68286E+02    0.36250E+00  0.36250E+00 -0.72500E+00  0.00000E+00  0.00000E+00  0.00000E+00    0.14275E+02  0.29263E+02 -0.43538E+02 -0.13776E+01  0.51495E+01 -0.69351E+01      982.00
  0.71905E+00  0.68397E+02    0.37500E+00  0.37500E+00 -0.75000E+00  0.00000E+00  0.00000E+00  0.00000E+00    0.14305E+02  0.29299E+02 -0.43604E+02 -0.13523E+01  0.51379E+01 -0.69967E+01      982.00
  0.74296E+00  0.68491E+02    0.38750E+00  0.38750E+00 -0.77500E+00  0.00000E+00  0.00000E+00  0.00000E+00    0.14329E+02  0.29331E+02 -0.43660E+02 -0.13218E+01  0.51175E+01 -0.70602E+01      982.00
  0.76686E+00  0.68582E+02    0.40000E+00  0.40000E+00 -0.80000E+00  0.00000E+00  0.00000E+00  0.00000E+00    0.14353E+02  0.29361E+02 -0.43713E+02 -0.12913E+01  0.50972E+01 -0.71234E+01      982.00
  0.79077E+00  0.68659E+02    0.41250E+00  0.41250E+00 -0.82500E+00  0.00000E+00  0.00000E+00  0.00000E+00    0.14373E+02  0.29384E+02 -0.43757E+02 -0.12611E+01  0.50760E+01 -0.71847E+01      982.00
  0.81467E+00  0.68735E+02    0.42500E+00  0.42500E+00 -0.85000E+00  0.00000E+00  0.00000E+00  0.00000E+00    0.14394E+02  0.29407E+02 -0.43802E+02 -0.12313E+01  0.50539E+01 -0.72446E+01      982.00
  0.83856E+00  0.68807E+02    0.43750E+00  0.43750E+00 -0.87500E+00  0.00000E+00  0.00000E+00  0.00000E+00    0.14415E+02  0.29428E+02 -0.43843E+02 -0.12010E+01  0.50320E+01 -0.73042E+01      982.00
  0.86246E+00  0.68869E+02    0.45000E+00  0.45000E+00 -0.90000E+00  0.00000E+00  0.00000E+00  0.00000E+00    0.14436E+02  0.29443E+02 -0.43879E+02 -0.11708E+01  0.50101E+01 -0.73608E+01      982.00
  0.88635E+00  0.68934E+02    0.46250E+00  0.46250E+00 -0.92500E+00  0.00000E+00  0.00000E+00  0.00000E+00    0.14457E+02  0.29459E+02 -0.43916E+02 -0.11402E+01  0.49875E+01 -0.74171E+01      982.00
  0.91024E+00  0.68988E+02    0.47500E+00  0.47500E+00 -0.95000E+00  0.00000E+00  0.00000E+00  0.00000E+00    0.14477E+02  0.29471E+02 -0.43948E+02 -0.11097E+01  0.49642E+01 -0.74718E+01      982.00
  0.93413E+00  0.69038E+02    0.48750E+00  0.48750E+00 -0.97500E+00  0.00000E+00  0.00000E+00  0.00000E+00    0.14496E+02  0.29480E+02 -0.43976E+02 -0.10781E+01  0.49415E+01 -0.75246E+01      982.00
  0.95802E+00  0.69048E+02    0.50000E+00  0.50000E+00 -0.10000E+01  0.00000E+00  0.00000E+00  0.00000E+00    0.14515E+02  0.29462E+02 -0.43977E+02 -0.10685E+01  0.49171E+01 -0.75855E+01      982.00
