          Evm          Svm            E11          E22          E33          E23          E13          E12         SDEV11       SDEV22       SDEV33       SDEV23       SDEV13       SDEV12      TEMP
  0.00000E+00  0.56515E+02    0.00000E+00  0.00000E+00  0.00000E+00  0.00000E+00  0.00000E+00  0.00000E+00    0.20324E+02  0.14297E+02 -0.34621E+02 -0.76614E+00  0.50885E+01  0.11407E+02      982.00
  0.22972E-01  0.56577E+02    0.12500E-01  0.12500E-01 -0.25000E-01  0.00000E+00  0.00000E+00  0.00000E+00    0.19804E+02  0.14837E+02 -0.34641E+02 -0.10229E+01  0.46840E+01  0.11740E+02      982.00
  0.45933E-01  0.56704E+02    0.25000E-01  0.25000E-01 -0.50000E-01  0.00000E+00  0.00000E+00  0.00000E+00    0.19359E+02  0.15315E+02 -0.34674E+02 -0.12297E+01  0.43474E+01  0.12064E+02      982.00
  0.68864E-01  0.56909E+02    0.37500E-01  0.37500E-01 -0.75000E-01  0.00000E+00  0.00000E+00  0.00000E+00    0.19010E+02  0.15721E+02 -0.34731E+02 -0.13980E+01  0.40595E+01  0.12399E+02      982.00
  0.91750E-01  0.57198E+02    0.50000E-01  0.50000E-01 -0.10000E+00  0.00000E+00  0.00000E+00  0.00000E+00    0.18767E+02  0.16052E+02 -0.34819E+02 -0.15329E+01  0.38124E+01  0.12749E+02      982.00
  0.11458E+00  0.57556E+02    0.62500E-01  0.62500E-01 -0.12500E+00  0.00000E+00  0.00000E+00  0.00000E+00    0.18617E+02  0.16319E+02 -0.34935E+02 -0.16401E+01  0.35973E+01  0.13112E+02      982.00
  0.13734E+00  0.57966E+02    0.75000E-01  0.75000E-01 -0.15000E+00  0.00000E+00  0.00000E+00  0.00000E+00    0.18538E+02  0.16536E+02 -0.35074E+02 -0.17250E+01  0.34080E+01  0.13481E+02      982.00
  0.16003E+00  0.58406E+02    0.87500E-01  0.87500E-01 -0.17500E+00  0.00000E+00  0.00000E+00  0.00000E+00    0.18511E+02  0.16718E+02 -0.35229E+02 -0.17925E+01  0.32404E+01  0.13848E+02      982.00
  0.18265E+00  0.58861E+02    0.10000E+00  0.10000E+00 -0.20000E+00  0.00000E+00  0.00000E+00  0.00000E+00    0.18518E+02  0.16875E+02 -0.35392E+02 -0.18468E+01  0.30917E+01  0.14205E+02      982.00
  0.20520E+00  0.59318E+02    0.11250E+00  0.11250E+00 -0.22500E+00  0.00000E+00  0.00000E+00  0.00000E+00    0.18544E+02  0.17016E+02 -0.35560E+02 -0.18915E+01  0.29593E+01  0.14545E+02      982.00
  0.22768E+00  0.59770E+02    0.12500E+00  0.12500E+00 -0.25000E+00  0.00000E+00  0.00000E+00  0.00000E+00    0.18582E+02  0.17148E+02 -0.35731E+02 -0.19277E+01  0.28437E+01  0.14866E+02      982.00
  0.25010E+00  0.60206E+02    0.13750E+00  0.13750E+00 -0.27500E+00  0.00000E+00  0.00000E+00  0.00000E+00    0.18625E+02  0.17271E+02 -0.35896E+02 -0.19556E+01  0.27413E+01  0.15167E+02      982.00
  0.27245E+00  0.60621E+02    0.15000E+00  0.15000E+00 -0.30000E+00  0.00000E+00  0.00000E+00  0.00000E+00    0.18665E+02  0.17391E+02 -0.36056E+02 -0.19801E+01  0.26498E+01  0.15446E+02      982.00
  0.29476E+00  0.61004E+02    0.16250E+00  0.16250E+00 -0.32500E+00  0.00000E+00  0.00000E+00  0.00000E+00    0.18693E+02  0.17513E+02 -0.36206E+02 -0.20063E+01  0.25638E+01  0.15697E+02      982.00
  0.31701E+00  0.61373E+02    0.17500E+00  0.17500E+00 -0.35000E+00  0.00000E+00  0.00000E+00  0.00000E+00    0.18721E+02  0.17630E+02 -0.36351E+02 -0.20259E+01  0.24902E+01  0.15933E+02      982.00
  0.33923E+00  0.61715E+02    0.18750E+00  0.18750E+00 -0.37500E+00  0.00000E+00  0.00000E+00  0.00000E+00    0.18742E+02  0.17746E+02 -0.36488E+02 -0.20436E+01  0.24240E+01  0.16148E+02      982.00
  0.36140E+00  0.62030E+02    0.20000E+00  0.20000E+00 -0.40000E+00  0.00000E+00  0.00000E+00  0.00000E+00    0.18753E+02  0.17864E+02 -0.36618E+02 -0.20617E+01  0.23631E+01  0.16337E+02      982.00
  0.38353E+00  0.62326E+02    0.21250E+00  0.21250E+00 -0.42500E+00  0.00000E+00  0.00000E+00  0.00000E+00    0.18763E+02  0.17976E+02 -0.36738E+02 -0.20756E+01  0.23094E+01  0.16515E+02      982.00
  0.40564E+00  0.62599E+02    0.22500E+00  0.22500E+00 -0.45000E+00  0.00000E+00  0.00000E+00  0.00000E+00    0.18768E+02  0.18084E+02 -0.36851E+02 -0.20874E+01  0.22610E+01  0.16677E+02      982.00
  0.42772E+00  0.62830E+02    0.23750E+00  0.23750E+00 -0.47500E+00  0.00000E+00  0.00000E+00  0.00000E+00    0.18758E+02  0.18189E+02 -0.36947E+02 -0.21002E+01  0.22108E+01  0.16812E+02      982.00
  0.44977E+00  0.63061E+02    0.25000E+00  0.25000E+00 -0.50000E+00  0.00000E+00  0.00000E+00  0.00000E+00    0.18756E+02  0.18289E+02 -0.37045E+02 -0.21077E+01  0.21712E+01  0.16943E+02      982.00
  0.47180E+00  0.63278E+02    0.26250E+00  0.26250E+00 -0.52500E+00  0.00000E+00  0.00000E+00  0.00000E+00    0.18754E+02  0.18384E+02 -0.37138E+02 -0.21135E+01  0.21366E+01  0.17064E+02      982.00
  0.49381E+00  0.63477E+02    0.27500E+00  0.27500E+00 -0.55000E+00  0.00000E+00  0.00000E+00  0.00000E+00    0.18750E+02  0.18475E+02 -0.37225E+02 -0.21176E+01  0.21054E+01  0.17173E+02      982.00
  0.51580E+00  0.63662E+02    0.28750E+00  0.28750E+00 -0.57500E+00  0.00000E+00  0.00000E+00  0.00000E+00    0.18746E+02  0.18560E+02 -0.37306E+02 -0.21202E+01  0.20773E+01  0.17272E+02      982.00
  0.53777E+00  0.63813E+02    0.30000E+00  0.30000E+00 -0.60000E+00  0.00000E+00  0.00000E+00  0.00000E+00    0.18730E+02  0.18642E+02 -0.37373E+02 -0.21225E+01  0.20450E+01  0.17354E+02      982.00
  0.55973E+00  0.63972E+02    0.31250E+00  0.31250E+00 -0.62500E+00  0.00000E+00  0.00000E+00  0.00000E+00    0.18726E+02  0.18718E+02 -0.37444E+02 -0.21227E+01  0.20225E+01  0.17436E+02      982.00
  0.58168E+00  0.64118E+02    0.32500E+00  0.32500E+00 -0.65000E+00  0.00000E+00  0.00000E+00  0.00000E+00    0.18723E+02  0.18788E+02 -0.37511E+02 -0.21214E+01  0.20026E+01  0.17509E+02      982.00
  0.60362E+00  0.64246E+02    0.33750E+00  0.33750E+00 -0.67500E+00  0.00000E+00  0.00000E+00  0.00000E+00    0.18710E+02  0.18859E+02 -0.37569E+02 -0.21192E+01  0.19769E+01  0.17575E+02      982.00
  0.62555E+00  0.64378E+02    0.35000E+00  0.35000E+00 -0.70000E+00  0.00000E+00  0.00000E+00  0.00000E+00    0.18721E+02  0.18912E+02 -0.37633E+02 -0.21161E+01  0.19701E+01  0.17633E+02      982.00
  0.64747E+00  0.64459E+02    0.36250E+00  0.36250E+00 -0.72500E+00  0.00000E+00  0.00000E+00  0.00000E+00    0.18706E+02  0.18964E+02 -0.37670E+02 -0.21117E+01  0.19491E+01  0.17676E+02      982.00
  0.66939E+00  0.64570E+02    0.37500E+00  0.37500E+00 -0.75000E+00  0.00000E+00  0.00000E+00  0.00000E+00    0.18707E+02  0.19016E+02 -0.37723E+02 -0.21087E+01  0.19357E+01  0.17728E+02      982.00
  0.69130E+00  0.64672E+02    0.38750E+00  0.38750E+00 -0.77500E+00  0.00000E+00  0.00000E+00  0.00000E+00    0.18709E+02  0.19063E+02 -0.37772E+02 -0.21050E+01  0.19236E+01  0.17774E+02      982.00
  0.71320E+00  0.64766E+02    0.40000E+00  0.40000E+00 -0.80000E+00  0.00000E+00  0.00000E+00  0.00000E+00    0.18712E+02  0.19106E+02 -0.37818E+02 -0.21012E+01  0.19125E+01  0.17816E+02      982.00
  0.73509E+00  0.64841E+02    0.41250E+00  0.41250E+00 -0.82500E+00  0.00000E+00  0.00000E+00  0.00000E+00    0.18706E+02  0.19147E+02 -0.37853E+02 -0.20963E+01  0.18962E+01  0.17853E+02      982.00
  0.75699E+00  0.64927E+02    0.42500E+00  0.42500E+00 -0.85000E+00  0.00000E+00  0.00000E+00  0.00000E+00    0.18713E+02  0.19183E+02 -0.37896E+02 -0.20930E+01  0.18864E+01  0.17890E+02      982.00
  0.77887E+00  0.65018E+02    0.43750E+00  0.43750E+00 -0.87500E+00  0.00000E+00  0.00000E+00  0.00000E+00    0.18716E+02  0.19225E+02 -0.37941E+02 -0.20872E+01  0.18704E+01  0.17932E+02      982.00
  0.80076E+00  0.65089E+02    0.45000E+00  0.45000E+00 -0.90000E+00  0.00000E+00  0.00000E+00  0.00000E+00    0.18724E+02  0.19253E+02 -0.37977E+02 -0.20836E+01  0.18609E+01  0.17961E+02      982.00
  0.82264E+00  0.65151E+02    0.46250E+00  0.46250E+00 -0.92500E+00  0.00000E+00  0.00000E+00  0.00000E+00    0.18732E+02  0.19277E+02 -0.38010E+02 -0.20806E+01  0.18533E+01  0.17986E+02      982.00
  0.84452E+00  0.65211E+02    0.47500E+00  0.47500E+00 -0.95000E+00  0.00000E+00  0.00000E+00  0.00000E+00    0.18742E+02  0.19298E+02 -0.38041E+02 -0.20778E+01  0.18466E+01  0.18010E+02      982.00
  0.86639E+00  0.65266E+02    0.48750E+00  0.48750E+00 -0.97500E+00  0.00000E+00  0.00000E+00  0.00000E+00    0.18753E+02  0.19317E+02 -0.38070E+02 -0.20752E+01  0.18404E+01  0.18031E+02      982.00
  0.88826E+00  0.65272E+02    0.50000E+00  0.50000E+00 -0.10000E+01  0.00000E+00  0.00000E+00  0.00000E+00    0.18755E+02  0.19318E+02 -0.38073E+02 -0.20812E+01  0.18428E+01  0.18033E+02      982.00
