          Evm          Svm            E11          E22          E33          E23          E13          E12         SDEV11       SDEV22       SDEV33       SDEV23       SDEV13       SDEV12      TEMP
  0.00000E+00  0.64567E+02    0.00000E+00  0.00000E+00  0.00000E+00  0.00000E+00  0.00000E+00  0.00000E+00    0.22321E+02  0.18770E+02 -0.41091E+02  0.57820E+01  0.29399E+01 -0.88344E+01      982.00
  0.23865E-01  0.64372E+02    0.12500E-01  0.12500E-01 -0.25000E-01  0.00000E+00  0.00000E+00  0.00000E+00    0.22513E+02  0.18573E+02 -0.41086E+02  0.54817E+01  0.29755E+01 -0.85102E+01      982.00
  0.47800E-01  0.64245E+02    0.25000E-01  0.25000E-01 -0.50000E-01  0.00000E+00  0.00000E+00  0.00000E+00    0.22643E+02  0.18472E+02 -0.41115E+02  0.52363E+01  0.30874E+01 -0.81673E+01      982.00
  0.71799E-01  0.64214E+02    0.37500E-01  0.37500E-01 -0.75000E-01  0.00000E+00  0.00000E+00  0.00000E+00    0.22776E+02  0.18404E+02 -0.41180E+02  0.50401E+01  0.32702E+01 -0.78579E+01      982.00
  0.95847E-01  0.64272E+02    0.50000E-01  0.50000E-01 -0.10000E+00  0.00000E+00  0.00000E+00  0.00000E+00    0.22915E+02  0.18362E+02 -0.41278E+02  0.48966E+01  0.34705E+01 -0.76075E+01      982.00
  0.11993E+00  0.64389E+02    0.62500E-01  0.62500E-01 -0.12500E+00  0.00000E+00  0.00000E+00  0.00000E+00    0.23051E+02  0.18343E+02 -0.41394E+02  0.47968E+01  0.36468E+01 -0.74194E+01      982.00
  0.14404E+00  0.64562E+02    0.75000E-01  0.75000E-01 -0.15000E+00  0.00000E+00  0.00000E+00  0.00000E+00    0.23196E+02  0.18334E+02 -0.41530E+02  0.47286E+01  0.37886E+01 -0.72932E+01      982.00
  0.16816E+00  0.64771E+02    0.87500E-01  0.87500E-01 -0.17500E+00  0.00000E+00  0.00000E+00  0.00000E+00    0.23362E+02  0.18320E+02 -0.41681E+02  0.46762E+01  0.38961E+01 -0.72140E+01      982.00
  0.19229E+00  0.65017E+02    0.10000E+00  0.10000E+00 -0.20000E+00  0.00000E+00  0.00000E+00  0.00000E+00    0.23537E+02  0.18311E+02 -0.41847E+02  0.46430E+01  0.39691E+01 -0.71794E+01      982.00
  0.21643E+00  0.65281E+02    0.11250E+00  0.11250E+00 -0.22500E+00  0.00000E+00  0.00000E+00  0.00000E+00    0.23731E+02  0.18290E+02 -0.42020E+02  0.46149E+01  0.40153E+01 -0.71702E+01      982.00
  0.24057E+00  0.65573E+02    0.12500E+00  0.12500E+00 -0.25000E+00  0.00000E+00  0.00000E+00  0.00000E+00    0.23933E+02  0.18275E+02 -0.42208E+02  0.46012E+01  0.40383E+01 -0.71874E+01      982.00
  0.26471E+00  0.65877E+02    0.13750E+00  0.13750E+00 -0.27500E+00  0.00000E+00  0.00000E+00  0.00000E+00    0.24144E+02  0.18257E+02 -0.42401E+02  0.45941E+01  0.40439E+01 -0.72172E+01      982.00
  0.28884E+00  0.66187E+02    0.15000E+00  0.15000E+00 -0.30000E+00  0.00000E+00  0.00000E+00  0.00000E+00    0.24362E+02  0.18235E+02 -0.42596E+02  0.45925E+01  0.40365E+01 -0.72534E+01      982.00
  0.31298E+00  0.66481E+02    0.16250E+00  0.16250E+00 -0.32500E+00  0.00000E+00  0.00000E+00  0.00000E+00    0.24586E+02  0.18196E+02 -0.42782E+02  0.45884E+01  0.40208E+01 -0.72866E+01      982.00
  0.33711E+00  0.66781E+02    0.17500E+00  0.17500E+00 -0.35000E+00  0.00000E+00  0.00000E+00  0.00000E+00    0.24807E+02  0.18164E+02 -0.42971E+02  0.45938E+01  0.39964E+01 -0.73202E+01      982.00
  0.36124E+00  0.67068E+02    0.18750E+00  0.18750E+00 -0.37500E+00  0.00000E+00  0.00000E+00  0.00000E+00    0.25025E+02  0.18127E+02 -0.43152E+02  0.46012E+01  0.39668E+01 -0.73474E+01      982.00
  0.38537E+00  0.67342E+02    0.20000E+00  0.20000E+00 -0.40000E+00  0.00000E+00  0.00000E+00  0.00000E+00    0.25240E+02  0.18085E+02 -0.43326E+02  0.46113E+01  0.39337E+01 -0.73685E+01      982.00
  0.40949E+00  0.67600E+02    0.21250E+00  0.21250E+00 -0.42500E+00  0.00000E+00  0.00000E+00  0.00000E+00    0.25451E+02  0.18038E+02 -0.43489E+02  0.46229E+01  0.38982E+01 -0.73817E+01      982.00
  0.43362E+00  0.67841E+02    0.22500E+00  0.22500E+00 -0.45000E+00  0.00000E+00  0.00000E+00  0.00000E+00    0.25657E+02  0.17985E+02 -0.43642E+02  0.46356E+01  0.38614E+01 -0.73868E+01      982.00
  0.45774E+00  0.68064E+02    0.23750E+00  0.23750E+00 -0.47500E+00  0.00000E+00  0.00000E+00  0.00000E+00    0.25858E+02  0.17926E+02 -0.43784E+02  0.46491E+01  0.38238E+01 -0.73837E+01      982.00
  0.48186E+00  0.68270E+02    0.25000E+00  0.25000E+00 -0.50000E+00  0.00000E+00  0.00000E+00  0.00000E+00    0.26054E+02  0.17862E+02 -0.43915E+02  0.46631E+01  0.37859E+01 -0.73728E+01      982.00
  0.50599E+00  0.68455E+02    0.26250E+00  0.26250E+00 -0.52500E+00  0.00000E+00  0.00000E+00  0.00000E+00    0.26251E+02  0.17781E+02 -0.44033E+02  0.46724E+01  0.37528E+01 -0.73519E+01      982.00
  0.53011E+00  0.68628E+02    0.27500E+00  0.27500E+00 -0.55000E+00  0.00000E+00  0.00000E+00  0.00000E+00    0.26431E+02  0.17713E+02 -0.44144E+02  0.46848E+01  0.37140E+01 -0.73290E+01      982.00
  0.55423E+00  0.68789E+02    0.28750E+00  0.28750E+00 -0.57500E+00  0.00000E+00  0.00000E+00  0.00000E+00    0.26612E+02  0.17634E+02 -0.44246E+02  0.46999E+01  0.36768E+01 -0.72986E+01      982.00
  0.57835E+00  0.68935E+02    0.30000E+00  0.30000E+00 -0.60000E+00  0.00000E+00  0.00000E+00  0.00000E+00    0.26788E+02  0.17551E+02 -0.44339E+02  0.47149E+01  0.36400E+01 -0.72625E+01      982.00
  0.60247E+00  0.69068E+02    0.31250E+00  0.31250E+00 -0.62500E+00  0.00000E+00  0.00000E+00  0.00000E+00    0.26959E+02  0.17464E+02 -0.44423E+02  0.47296E+01  0.36038E+01 -0.72214E+01      982.00
  0.62659E+00  0.69189E+02    0.32500E+00  0.32500E+00 -0.65000E+00  0.00000E+00  0.00000E+00  0.00000E+00    0.27127E+02  0.17374E+02 -0.44500E+02  0.47440E+01  0.35679E+01 -0.71757E+01      982.00
  0.65071E+00  0.69299E+02    0.33750E+00  0.33750E+00 -0.67500E+00  0.00000E+00  0.00000E+00  0.00000E+00    0.27290E+02  0.17280E+02 -0.44570E+02  0.47581E+01  0.35325E+01 -0.71259E+01      982.00
  0.67482E+00  0.69394E+02    0.35000E+00  0.35000E+00 -0.70000E+00  0.00000E+00  0.00000E+00  0.00000E+00    0.27454E+02  0.17175E+02 -0.44629E+02  0.47639E+01  0.35064E+01 -0.70703E+01      982.00
  0.69894E+00  0.69487E+02    0.36250E+00  0.36250E+00 -0.72500E+00  0.00000E+00  0.00000E+00  0.00000E+00    0.27610E+02  0.17076E+02 -0.44687E+02  0.47770E+01  0.34719E+01 -0.70141E+01      982.00
  0.72306E+00  0.69572E+02    0.37500E+00  0.37500E+00 -0.75000E+00  0.00000E+00  0.00000E+00  0.00000E+00    0.27762E+02  0.16977E+02 -0.44739E+02  0.47898E+01  0.34375E+01 -0.69556E+01      982.00
  0.74717E+00  0.69648E+02    0.38750E+00  0.38750E+00 -0.77500E+00  0.00000E+00  0.00000E+00  0.00000E+00    0.27911E+02  0.16875E+02 -0.44786E+02  0.48023E+01  0.34034E+01 -0.68947E+01      982.00
  0.77129E+00  0.69718E+02    0.40000E+00  0.40000E+00 -0.80000E+00  0.00000E+00  0.00000E+00  0.00000E+00    0.28056E+02  0.16772E+02 -0.44828E+02  0.48143E+01  0.33696E+01 -0.68316E+01      982.00
  0.79540E+00  0.69782E+02    0.41250E+00  0.41250E+00 -0.82500E+00  0.00000E+00  0.00000E+00  0.00000E+00    0.28198E+02  0.16669E+02 -0.44867E+02  0.48258E+01  0.33360E+01 -0.67668E+01      982.00
  0.81951E+00  0.69841E+02    0.42500E+00  0.42500E+00 -0.85000E+00  0.00000E+00  0.00000E+00  0.00000E+00    0.28337E+02  0.16564E+02 -0.44901E+02  0.48369E+01  0.33027E+01 -0.67003E+01      982.00
  0.84362E+00  0.69895E+02    0.43750E+00  0.43750E+00 -0.87500E+00  0.00000E+00  0.00000E+00  0.00000E+00    0.28484E+02  0.16449E+02 -0.44932E+02  0.48419E+01  0.32750E+01 -0.66233E+01      982.00
  0.86772E+00  0.69944E+02    0.45000E+00  0.45000E+00 -0.90000E+00  0.00000E+00  0.00000E+00  0.00000E+00    0.28617E+02  0.16343E+02 -0.44960E+02  0.48516E+01  0.32421E+01 -0.65544E+01      982.00
  0.89183E+00  0.69935E+02    0.46250E+00  0.46250E+00 -0.92500E+00  0.00000E+00  0.00000E+00  0.00000E+00    0.28715E+02  0.16239E+02 -0.44954E+02  0.48455E+01  0.31908E+01 -0.64861E+01      982.00
  0.91593E+00  0.69924E+02    0.47500E+00  0.47500E+00 -0.95000E+00  0.00000E+00  0.00000E+00  0.00000E+00    0.28810E+02  0.16137E+02 -0.44947E+02  0.48400E+01  0.31455E+01 -0.64143E+01      982.00
  0.94004E+00  0.69914E+02    0.48750E+00  0.48750E+00 -0.97500E+00  0.00000E+00  0.00000E+00  0.00000E+00    0.28905E+02  0.16035E+02 -0.44940E+02  0.48343E+01  0.31017E+01 -0.63426E+01      982.00
  0.96414E+00  0.69905E+02    0.50000E+00  0.50000E+00 -0.10000E+01  0.00000E+00  0.00000E+00  0.00000E+00    0.28999E+02  0.15934E+02 -0.44933E+02  0.48285E+01  0.30590E+01 -0.62712E+01      982.00
