          Evm          Svm            E11          E22          E33          E23          E13          E12         SDEV11       SDEV22       SDEV33       SDEV23       SDEV13       SDEV12      TEMP
  0.00000E+00  0.60026E+02    0.00000E+00  0.00000E+00  0.00000E+00  0.00000E+00  0.00000E+00  0.00000E+00    0.16917E+02  0.21877E+02 -0.38794E+02  0.12162E+00  0.53191E+01  0.61501E+01      982.00
  0.24236E-01  0.60323E+02    0.12500E-01  0.12500E-01 -0.25000E-01  0.00000E+00  0.00000E+00  0.00000E+00    0.16700E+02  0.22267E+02 -0.38967E+02  0.26048E+00  0.54537E+01  0.60482E+01      982.00
  0.48460E-01  0.60693E+02    0.25000E-01  0.25000E-01 -0.50000E-01  0.00000E+00  0.00000E+00  0.00000E+00    0.16466E+02  0.22720E+02 -0.39186E+02  0.39218E+00  0.56106E+01  0.59000E+01      982.00
  0.72672E-01  0.60998E+02    0.37500E-01  0.37500E-01 -0.75000E-01  0.00000E+00  0.00000E+00  0.00000E+00    0.16204E+02  0.23167E+02 -0.39371E+02  0.51763E+00  0.57768E+01  0.56522E+01      982.00
  0.96876E-01  0.61098E+02    0.50000E-01  0.50000E-01 -0.10000E+00  0.00000E+00  0.00000E+00  0.00000E+00    0.15983E+02  0.23481E+02 -0.39464E+02  0.58585E+00  0.57889E+01  0.53271E+01      982.00
  0.12110E+00  0.61128E+02    0.62500E-01  0.62500E-01 -0.12500E+00  0.00000E+00  0.00000E+00  0.00000E+00    0.15830E+02  0.23717E+02 -0.39547E+02  0.56300E+00  0.56483E+01  0.49781E+01      982.00
  0.14536E+00  0.61139E+02    0.75000E-01  0.75000E-01 -0.15000E+00  0.00000E+00  0.00000E+00  0.00000E+00    0.15735E+02  0.23898E+02 -0.39633E+02  0.49601E+00  0.54330E+01  0.46367E+01      982.00
  0.16967E+00  0.61168E+02    0.87500E-01  0.87500E-01 -0.17500E+00  0.00000E+00  0.00000E+00  0.00000E+00    0.15673E+02  0.24059E+02 -0.39732E+02  0.40636E+00  0.52014E+01  0.42880E+01      982.00
  0.19403E+00  0.61215E+02    0.10000E+00  0.10000E+00 -0.20000E+00  0.00000E+00  0.00000E+00  0.00000E+00    0.15638E+02  0.24199E+02 -0.39837E+02  0.32126E+00  0.49864E+01  0.39422E+01      982.00
  0.21843E+00  0.61284E+02    0.11250E+00  0.11250E+00 -0.22500E+00  0.00000E+00  0.00000E+00  0.00000E+00    0.15628E+02  0.24320E+02 -0.39948E+02  0.25210E+00  0.48044E+01  0.36021E+01      982.00
  0.24287E+00  0.61373E+02    0.12500E+00  0.12500E+00 -0.25000E+00  0.00000E+00  0.00000E+00  0.00000E+00    0.15643E+02  0.24421E+02 -0.40064E+02  0.20281E+00  0.46607E+01  0.32666E+01      982.00
  0.26735E+00  0.61480E+02    0.13750E+00  0.13750E+00 -0.27500E+00  0.00000E+00  0.00000E+00  0.00000E+00    0.15681E+02  0.24503E+02 -0.40184E+02  0.17331E+00  0.45548E+01  0.29334E+01      982.00
  0.29186E+00  0.61599E+02    0.15000E+00  0.15000E+00 -0.30000E+00  0.00000E+00  0.00000E+00  0.00000E+00    0.15743E+02  0.24564E+02 -0.40307E+02  0.16144E+00  0.44825E+01  0.25978E+01      982.00
  0.31640E+00  0.61722E+02    0.16250E+00  0.16250E+00 -0.32500E+00  0.00000E+00  0.00000E+00  0.00000E+00    0.15827E+02  0.24601E+02 -0.40428E+02  0.16402E+00  0.44380E+01  0.22542E+01      982.00
  0.34097E+00  0.61844E+02    0.17500E+00  0.17500E+00 -0.35000E+00  0.00000E+00  0.00000E+00  0.00000E+00    0.15932E+02  0.24613E+02 -0.40545E+02  0.17728E+00  0.44148E+01  0.18971E+01      982.00
  0.36555E+00  0.61957E+02    0.18750E+00  0.18750E+00 -0.37500E+00  0.00000E+00  0.00000E+00  0.00000E+00    0.16058E+02  0.24596E+02 -0.40654E+02  0.19708E+00  0.44067E+01  0.15207E+01      982.00
  0.39016E+00  0.62057E+02    0.20000E+00  0.20000E+00 -0.40000E+00  0.00000E+00  0.00000E+00  0.00000E+00    0.16203E+02  0.24549E+02 -0.40752E+02  0.21890E+00  0.44076E+01  0.11200E+01      982.00
  0.41478E+00  0.62140E+02    0.21250E+00  0.21250E+00 -0.42500E+00  0.00000E+00  0.00000E+00  0.00000E+00    0.16369E+02  0.24467E+02 -0.40837E+02  0.23777E+00  0.44120E+01  0.69042E+00      982.00
  0.43943E+00  0.62203E+02    0.22500E+00  0.22500E+00 -0.45000E+00  0.00000E+00  0.00000E+00  0.00000E+00    0.16556E+02  0.24350E+02 -0.40906E+02  0.24823E+00  0.44147E+01  0.22807E+00      982.00
  0.46409E+00  0.62249E+02    0.23750E+00  0.23750E+00 -0.47500E+00  0.00000E+00  0.00000E+00  0.00000E+00    0.16759E+02  0.24200E+02 -0.40959E+02  0.25244E+00  0.44084E+01 -0.26476E+00      982.00
  0.48876E+00  0.62279E+02    0.25000E+00  0.25000E+00 -0.50000E+00  0.00000E+00  0.00000E+00  0.00000E+00    0.16989E+02  0.24008E+02 -0.40997E+02  0.22880E+00  0.43933E+01 -0.80062E+00      982.00
  0.51345E+00  0.62299E+02    0.26250E+00  0.26250E+00 -0.52500E+00  0.00000E+00  0.00000E+00  0.00000E+00    0.17239E+02  0.23782E+02 -0.41021E+02  0.18426E+00  0.43612E+01 -0.13701E+01      982.00
  0.53814E+00  0.62315E+02    0.27500E+00  0.27500E+00 -0.55000E+00  0.00000E+00  0.00000E+00  0.00000E+00    0.17521E+02  0.23514E+02 -0.41035E+02  0.10104E+00  0.43110E+01 -0.19828E+01      982.00
  0.56283E+00  0.62340E+02    0.28750E+00  0.28750E+00 -0.57500E+00  0.00000E+00  0.00000E+00  0.00000E+00    0.17825E+02  0.23217E+02 -0.41041E+02 -0.14675E-01  0.42374E+01 -0.26265E+01      982.00
  0.58752E+00  0.62383E+02    0.30000E+00  0.30000E+00 -0.60000E+00  0.00000E+00  0.00000E+00  0.00000E+00    0.18163E+02  0.22883E+02 -0.41046E+02 -0.17811E+00  0.41378E+01 -0.33056E+01      982.00
  0.61220E+00  0.62457E+02    0.31250E+00  0.31250E+00 -0.62500E+00  0.00000E+00  0.00000E+00  0.00000E+00    0.18526E+02  0.22527E+02 -0.41053E+02 -0.38017E+00  0.40112E+01 -0.40059E+01      982.00
  0.63684E+00  0.62575E+02    0.32500E+00  0.32500E+00 -0.65000E+00  0.00000E+00  0.00000E+00  0.00000E+00    0.18912E+02  0.22157E+02 -0.41070E+02 -0.62093E+00  0.38571E+01 -0.47182E+01      982.00
  0.66146E+00  0.62745E+02    0.33750E+00  0.33750E+00 -0.67500E+00  0.00000E+00  0.00000E+00  0.00000E+00    0.19321E+02  0.21780E+02 -0.41101E+02 -0.89723E+00  0.36772E+01 -0.54324E+01      982.00
  0.68602E+00  0.62974E+02    0.35000E+00  0.35000E+00 -0.70000E+00  0.00000E+00  0.00000E+00  0.00000E+00    0.19751E+02  0.21400E+02 -0.41151E+02 -0.12051E+01  0.34734E+01 -0.61375E+01      982.00
  0.71053E+00  0.63262E+02    0.36250E+00  0.36250E+00 -0.72500E+00  0.00000E+00  0.00000E+00  0.00000E+00    0.20186E+02  0.21036E+02 -0.41223E+02 -0.15231E+01  0.32528E+01 -0.68162E+01      982.00
  0.73496E+00  0.63605E+02    0.37500E+00  0.37500E+00 -0.75000E+00  0.00000E+00  0.00000E+00  0.00000E+00    0.20629E+02  0.20689E+02 -0.41318E+02 -0.18474E+01  0.30188E+01 -0.74605E+01      982.00
  0.75932E+00  0.63995E+02    0.38750E+00  0.38750E+00 -0.77500E+00  0.00000E+00  0.00000E+00  0.00000E+00    0.21066E+02  0.20369E+02 -0.41435E+02 -0.21608E+01  0.27784E+01 -0.80593E+01      982.00
  0.78360E+00  0.64421E+02    0.40000E+00  0.40000E+00 -0.80000E+00  0.00000E+00  0.00000E+00  0.00000E+00    0.21496E+02  0.20078E+02 -0.41574E+02 -0.24562E+01  0.25362E+01 -0.86077E+01      982.00
  0.80780E+00  0.64871E+02    0.41250E+00  0.41250E+00 -0.82500E+00  0.00000E+00  0.00000E+00  0.00000E+00    0.21913E+02  0.19818E+02 -0.41731E+02 -0.27255E+01  0.22969E+01 -0.91023E+01      982.00
  0.83193E+00  0.65337E+02    0.42500E+00  0.42500E+00 -0.85000E+00  0.00000E+00  0.00000E+00  0.00000E+00    0.22319E+02  0.19585E+02 -0.41904E+02 -0.29697E+01  0.20618E+01 -0.95440E+01      982.00
  0.85598E+00  0.65805E+02    0.43750E+00  0.43750E+00 -0.87500E+00  0.00000E+00  0.00000E+00  0.00000E+00    0.22703E+02  0.19386E+02 -0.42089E+02 -0.31765E+01  0.18376E+01 -0.99316E+01      982.00
  0.87996E+00  0.66272E+02    0.45000E+00  0.45000E+00 -0.90000E+00  0.00000E+00  0.00000E+00  0.00000E+00    0.23073E+02  0.19211E+02 -0.42283E+02 -0.33555E+01  0.16219E+01 -0.10270E+02      982.00
  0.90389E+00  0.66730E+02    0.46250E+00  0.46250E+00 -0.92500E+00  0.00000E+00  0.00000E+00  0.00000E+00    0.23422E+02  0.19063E+02 -0.42485E+02 -0.34997E+01  0.14197E+01 -0.10561E+02      982.00
  0.92776E+00  0.67174E+02    0.47500E+00  0.47500E+00 -0.95000E+00  0.00000E+00  0.00000E+00  0.00000E+00    0.23754E+02  0.18937E+02 -0.42691E+02 -0.36157E+01  0.12297E+01 -0.10809E+02      982.00
  0.95159E+00  0.67540E+02    0.48750E+00  0.48750E+00 -0.97500E+00  0.00000E+00  0.00000E+00  0.00000E+00    0.24045E+02  0.18822E+02 -0.42866E+02 -0.36885E+01  0.10620E+01 -0.10993E+02      982.00
  0.97539E+00  0.67887E+02    0.50000E+00  0.50000E+00 -0.10000E+01  0.00000E+00  0.00000E+00  0.00000E+00    0.24320E+02  0.18721E+02 -0.43041E+02 -0.37416E+01  0.90598E+00 -0.11142E+02      982.00
