          Evm          Svm            E11          E22          E33          E23          E13          E12         SDEV11       SDEV22       SDEV33       SDEV23       SDEV13       SDEV12      TEMP
  0.00000E+00  0.60642E+02    0.00000E+00  0.00000E+00  0.00000E+00  0.00000E+00  0.00000E+00  0.00000E+00    0.24381E+02  0.13264E+02 -0.37646E+02  0.49621E+01  0.36401E+01 -0.97014E+01      982.00
  0.23280E-01  0.61033E+02    0.12500E-01  0.12500E-01 -0.25000E-01  0.00000E+00  0.00000E+00  0.00000E+00    0.24380E+02  0.13558E+02 -0.37937E+02  0.51024E+01  0.36665E+01 -0.96684E+01      982.00
  0.46589E-01  0.61185E+02    0.25000E-01  0.25000E-01 -0.50000E-01  0.00000E+00  0.00000E+00  0.00000E+00    0.24229E+02  0.13891E+02 -0.38121E+02  0.52083E+01  0.36283E+01 -0.95370E+01      982.00
  0.69953E-01  0.61248E+02    0.37500E-01  0.37500E-01 -0.75000E-01  0.00000E+00  0.00000E+00  0.00000E+00    0.24128E+02  0.14124E+02 -0.38251E+02  0.51625E+01  0.37130E+01 -0.93610E+01      982.00
  0.93373E-01  0.61331E+02    0.50000E-01  0.50000E-01 -0.10000E+00  0.00000E+00  0.00000E+00  0.00000E+00    0.24169E+02  0.14217E+02 -0.38387E+02  0.49834E+01  0.39241E+01 -0.91483E+01      982.00
  0.11684E+00  0.61520E+02    0.62500E-01  0.62500E-01 -0.12500E+00  0.00000E+00  0.00000E+00  0.00000E+00    0.24283E+02  0.14281E+02 -0.38563E+02  0.48158E+01  0.41700E+01 -0.89786E+01      982.00
  0.14035E+00  0.61767E+02    0.75000E-01  0.75000E-01 -0.15000E+00  0.00000E+00  0.00000E+00  0.00000E+00    0.24453E+02  0.14309E+02 -0.38762E+02  0.46610E+01  0.43983E+01 -0.88358E+01      982.00
  0.16388E+00  0.62061E+02    0.87500E-01  0.87500E-01 -0.17500E+00  0.00000E+00  0.00000E+00  0.00000E+00    0.24662E+02  0.14317E+02 -0.38978E+02  0.45294E+01  0.45860E+01 -0.87213E+01      982.00
  0.18744E+00  0.62391E+02    0.10000E+00  0.10000E+00 -0.20000E+00  0.00000E+00  0.00000E+00  0.00000E+00    0.24889E+02  0.14322E+02 -0.39211E+02  0.44284E+01  0.47260E+01 -0.86349E+01      982.00
  0.21100E+00  0.62751E+02    0.11250E+00  0.11250E+00 -0.22500E+00  0.00000E+00  0.00000E+00  0.00000E+00    0.25138E+02  0.14319E+02 -0.39457E+02  0.43482E+01  0.48245E+01 -0.85711E+01      982.00
  0.23458E+00  0.63131E+02    0.12500E+00  0.12500E+00 -0.25000E+00  0.00000E+00  0.00000E+00  0.00000E+00    0.25398E+02  0.14316E+02 -0.39713E+02  0.42884E+01  0.48864E+01 -0.85254E+01      982.00
  0.25817E+00  0.63523E+02    0.13750E+00  0.13750E+00 -0.27500E+00  0.00000E+00  0.00000E+00  0.00000E+00    0.25662E+02  0.14314E+02 -0.39976E+02  0.42455E+01  0.49184E+01 -0.84921E+01      982.00
  0.28177E+00  0.63918E+02    0.15000E+00  0.15000E+00 -0.30000E+00  0.00000E+00  0.00000E+00  0.00000E+00    0.25920E+02  0.14320E+02 -0.40239E+02  0.42214E+01  0.49257E+01 -0.84686E+01      982.00
  0.30538E+00  0.64312E+02    0.16250E+00  0.16250E+00 -0.32500E+00  0.00000E+00  0.00000E+00  0.00000E+00    0.26178E+02  0.14324E+02 -0.40502E+02  0.42046E+01  0.49161E+01 -0.84475E+01      982.00
  0.32900E+00  0.64697E+02    0.17500E+00  0.17500E+00 -0.35000E+00  0.00000E+00  0.00000E+00  0.00000E+00    0.26430E+02  0.14331E+02 -0.40761E+02  0.41967E+01  0.48932E+01 -0.84271E+01      982.00
  0.35262E+00  0.65073E+02    0.18750E+00  0.18750E+00 -0.37500E+00  0.00000E+00  0.00000E+00  0.00000E+00    0.26668E+02  0.14346E+02 -0.41014E+02  0.42022E+01  0.48589E+01 -0.84074E+01      982.00
  0.37626E+00  0.65432E+02    0.20000E+00  0.20000E+00 -0.40000E+00  0.00000E+00  0.00000E+00  0.00000E+00    0.26899E+02  0.14358E+02 -0.41257E+02  0.42084E+01  0.48192E+01 -0.83831E+01      982.00
  0.39990E+00  0.65775E+02    0.21250E+00  0.21250E+00 -0.42500E+00  0.00000E+00  0.00000E+00  0.00000E+00    0.27120E+02  0.14370E+02 -0.41490E+02  0.42191E+01  0.47750E+01 -0.83544E+01      982.00
  0.42356E+00  0.66098E+02    0.22500E+00  0.22500E+00 -0.45000E+00  0.00000E+00  0.00000E+00  0.00000E+00    0.27319E+02  0.14395E+02 -0.41714E+02  0.42348E+01  0.47229E+01 -0.83217E+01      982.00
  0.44722E+00  0.66399E+02    0.23750E+00  0.23750E+00 -0.47500E+00  0.00000E+00  0.00000E+00  0.00000E+00    0.27514E+02  0.14408E+02 -0.41922E+02  0.42522E+01  0.46743E+01 -0.82847E+01      982.00
  0.47090E+00  0.66689E+02    0.25000E+00  0.25000E+00 -0.50000E+00  0.00000E+00  0.00000E+00  0.00000E+00    0.27705E+02  0.14419E+02 -0.42124E+02  0.42732E+01  0.46230E+01 -0.82388E+01      982.00
  0.49459E+00  0.66963E+02    0.26250E+00  0.26250E+00 -0.52500E+00  0.00000E+00  0.00000E+00  0.00000E+00    0.27877E+02  0.14441E+02 -0.42318E+02  0.42956E+01  0.45683E+01 -0.81918E+01      982.00
  0.51829E+00  0.67226E+02    0.27500E+00  0.27500E+00 -0.55000E+00  0.00000E+00  0.00000E+00  0.00000E+00    0.28055E+02  0.14452E+02 -0.42507E+02  0.43197E+01  0.45090E+01 -0.81280E+01      982.00
  0.54200E+00  0.67463E+02    0.28750E+00  0.28750E+00 -0.57500E+00  0.00000E+00  0.00000E+00  0.00000E+00    0.28207E+02  0.14472E+02 -0.42678E+02  0.43413E+01  0.44540E+01 -0.80724E+01      982.00
  0.56572E+00  0.67684E+02    0.30000E+00  0.30000E+00 -0.60000E+00  0.00000E+00  0.00000E+00  0.00000E+00    0.28349E+02  0.14490E+02 -0.42839E+02  0.43628E+01  0.43998E+01 -0.80137E+01      982.00
  0.58946E+00  0.67889E+02    0.31250E+00  0.31250E+00 -0.62500E+00  0.00000E+00  0.00000E+00  0.00000E+00    0.28485E+02  0.14506E+02 -0.42990E+02  0.43832E+01  0.43459E+01 -0.79523E+01      982.00
  0.61320E+00  0.68080E+02    0.32500E+00  0.32500E+00 -0.65000E+00  0.00000E+00  0.00000E+00  0.00000E+00    0.28613E+02  0.14519E+02 -0.43132E+02  0.44024E+01  0.42929E+01 -0.78888E+01      982.00
  0.63696E+00  0.68258E+02    0.33750E+00  0.33750E+00 -0.67500E+00  0.00000E+00  0.00000E+00  0.00000E+00    0.28735E+02  0.14530E+02 -0.43265E+02  0.44205E+01  0.42408E+01 -0.78234E+01      982.00
  0.66073E+00  0.68431E+02    0.35000E+00  0.35000E+00 -0.70000E+00  0.00000E+00  0.00000E+00  0.00000E+00    0.28868E+02  0.14530E+02 -0.43398E+02  0.44415E+01  0.41735E+01 -0.77371E+01      982.00
  0.68451E+00  0.68583E+02    0.36250E+00  0.36250E+00 -0.72500E+00  0.00000E+00  0.00000E+00  0.00000E+00    0.28977E+02  0.14536E+02 -0.43513E+02  0.44570E+01  0.41225E+01 -0.76690E+01      982.00
  0.70830E+00  0.68724E+02    0.37500E+00  0.37500E+00 -0.75000E+00  0.00000E+00  0.00000E+00  0.00000E+00    0.29081E+02  0.14541E+02 -0.43622E+02  0.44717E+01  0.40734E+01 -0.76012E+01      982.00
  0.73211E+00  0.68859E+02    0.38750E+00  0.38750E+00 -0.77500E+00  0.00000E+00  0.00000E+00  0.00000E+00    0.29182E+02  0.14541E+02 -0.43724E+02  0.44880E+01  0.40306E+01 -0.75307E+01      982.00
  0.75592E+00  0.68982E+02    0.40000E+00  0.40000E+00 -0.80000E+00  0.00000E+00  0.00000E+00  0.00000E+00    0.29278E+02  0.14541E+02 -0.43819E+02  0.45005E+01  0.39843E+01 -0.74625E+01      982.00
  0.77974E+00  0.69096E+02    0.41250E+00  0.41250E+00 -0.82500E+00  0.00000E+00  0.00000E+00  0.00000E+00    0.29369E+02  0.14538E+02 -0.43907E+02  0.45120E+01  0.39383E+01 -0.73946E+01      982.00
  0.80357E+00  0.69203E+02    0.42500E+00  0.42500E+00 -0.85000E+00  0.00000E+00  0.00000E+00  0.00000E+00    0.29457E+02  0.14534E+02 -0.43990E+02  0.45227E+01  0.38931E+01 -0.73271E+01      982.00
  0.82741E+00  0.69294E+02    0.43750E+00  0.43750E+00 -0.87500E+00  0.00000E+00  0.00000E+00  0.00000E+00    0.29531E+02  0.14528E+02 -0.44059E+02  0.45332E+01  0.38640E+01 -0.72760E+01      982.00
  0.85125E+00  0.69388E+02    0.45000E+00  0.45000E+00 -0.90000E+00  0.00000E+00  0.00000E+00  0.00000E+00    0.29611E+02  0.14521E+02 -0.44132E+02  0.45424E+01  0.38200E+01 -0.72097E+01      982.00
  0.87510E+00  0.69475E+02    0.46250E+00  0.46250E+00 -0.92500E+00  0.00000E+00  0.00000E+00  0.00000E+00    0.29689E+02  0.14512E+02 -0.44201E+02  0.45510E+01  0.37770E+01 -0.71440E+01      982.00
  0.89896E+00  0.69511E+02    0.47500E+00  0.47500E+00 -0.95000E+00  0.00000E+00  0.00000E+00  0.00000E+00    0.29730E+02  0.14512E+02 -0.44242E+02  0.45360E+01  0.37229E+01 -0.70872E+01      982.00
  0.92283E+00  0.69535E+02    0.48750E+00  0.48750E+00 -0.97500E+00  0.00000E+00  0.00000E+00  0.00000E+00    0.29775E+02  0.14499E+02 -0.44274E+02  0.45291E+01  0.36684E+01 -0.70207E+01      982.00
  0.94670E+00  0.69552E+02    0.50000E+00  0.50000E+00 -0.10000E+01  0.00000E+00  0.00000E+00  0.00000E+00    0.29813E+02  0.14485E+02 -0.44297E+02  0.45230E+01  0.36144E+01 -0.69662E+01      982.00
