          Evm          Svm            E11          E22          E33          E23          E13          E12         SDEV11       SDEV22       SDEV33       SDEV23       SDEV13       SDEV12      TEMP
  0.00000E+00  0.55955E+02    0.00000E+00  0.00000E+00  0.00000E+00  0.00000E+00  0.00000E+00  0.00000E+00    0.21017E+02  0.13824E+02 -0.34841E+02 -0.69818E+00  0.44390E+01  0.10004E+02      982.00
  0.23350E-01  0.55988E+02    0.12500E-01  0.12500E-01 -0.25000E-01  0.00000E+00  0.00000E+00  0.00000E+00    0.20561E+02  0.14277E+02 -0.34838E+02 -0.92347E+00  0.41758E+01  0.10318E+02      982.00
  0.46684E-01  0.56129E+02    0.25000E-01  0.25000E-01 -0.50000E-01  0.00000E+00  0.00000E+00  0.00000E+00    0.20084E+02  0.14799E+02 -0.34883E+02 -0.11475E+01  0.38980E+01  0.10679E+02      982.00
  0.69989E-01  0.56332E+02    0.37500E-01  0.37500E-01 -0.75000E-01  0.00000E+00  0.00000E+00  0.00000E+00    0.19636E+02  0.15308E+02 -0.34944E+02 -0.13453E+01  0.36407E+01  0.11055E+02      982.00
  0.93251E-01  0.56606E+02    0.50000E-01  0.50000E-01 -0.10000E+00  0.00000E+00  0.00000E+00  0.00000E+00    0.19276E+02  0.15754E+02 -0.35030E+02 -0.15050E+01  0.34179E+01  0.11433E+02      982.00
  0.11646E+00  0.56942E+02    0.62500E-01  0.62500E-01 -0.12500E+00  0.00000E+00  0.00000E+00  0.00000E+00    0.19023E+02  0.16112E+02 -0.35136E+02 -0.16261E+01  0.32298E+01  0.11820E+02      982.00
  0.13960E+00  0.57340E+02    0.75000E-01  0.75000E-01 -0.15000E+00  0.00000E+00  0.00000E+00  0.00000E+00    0.18876E+02  0.16393E+02 -0.35270E+02 -0.17137E+01  0.30717E+01  0.12210E+02      982.00
  0.16266E+00  0.57778E+02    0.87500E-01  0.87500E-01 -0.17500E+00  0.00000E+00  0.00000E+00  0.00000E+00    0.18807E+02  0.16614E+02 -0.35420E+02 -0.17758E+01  0.29357E+01  0.12604E+02      982.00
  0.18565E+00  0.58233E+02    0.10000E+00  0.10000E+00 -0.20000E+00  0.00000E+00  0.00000E+00  0.00000E+00    0.18802E+02  0.16779E+02 -0.35581E+02 -0.18131E+01  0.28217E+01  0.12984E+02      982.00
  0.20856E+00  0.58704E+02    0.11250E+00  0.11250E+00 -0.22500E+00  0.00000E+00  0.00000E+00  0.00000E+00    0.18842E+02  0.16909E+02 -0.35751E+02 -0.18340E+01  0.27264E+01  0.13357E+02      982.00
  0.23140E+00  0.59168E+02    0.12500E+00  0.12500E+00 -0.25000E+00  0.00000E+00  0.00000E+00  0.00000E+00    0.18905E+02  0.17016E+02 -0.35921E+02 -0.18428E+01  0.26473E+01  0.13708E+02      982.00
  0.25417E+00  0.59621E+02    0.13750E+00  0.13750E+00 -0.27500E+00  0.00000E+00  0.00000E+00  0.00000E+00    0.18979E+02  0.17109E+02 -0.36088E+02 -0.18437E+01  0.25789E+01  0.14044E+02      982.00
  0.27687E+00  0.60037E+02    0.15000E+00  0.15000E+00 -0.30000E+00  0.00000E+00  0.00000E+00  0.00000E+00    0.19051E+02  0.17187E+02 -0.36238E+02 -0.18337E+01  0.25374E+01  0.14350E+02      982.00
  0.29950E+00  0.60465E+02    0.16250E+00  0.16250E+00 -0.32500E+00  0.00000E+00  0.00000E+00  0.00000E+00    0.19123E+02  0.17274E+02 -0.36397E+02 -0.18251E+01  0.25015E+01  0.14651E+02      982.00
  0.32207E+00  0.60861E+02    0.17500E+00  0.17500E+00 -0.35000E+00  0.00000E+00  0.00000E+00  0.00000E+00    0.19179E+02  0.17361E+02 -0.36541E+02 -0.18180E+01  0.24717E+01  0.14935E+02      982.00
  0.34459E+00  0.61240E+02    0.18750E+00  0.18750E+00 -0.37500E+00  0.00000E+00  0.00000E+00  0.00000E+00    0.19222E+02  0.17456E+02 -0.36678E+02 -0.18148E+01  0.24460E+01  0.15201E+02      982.00
  0.36705E+00  0.61590E+02    0.20000E+00  0.20000E+00 -0.40000E+00  0.00000E+00  0.00000E+00  0.00000E+00    0.19248E+02  0.17555E+02 -0.36803E+02 -0.18163E+01  0.24221E+01  0.15450E+02      982.00
  0.38946E+00  0.61914E+02    0.21250E+00  0.21250E+00 -0.42500E+00  0.00000E+00  0.00000E+00  0.00000E+00    0.19257E+02  0.17661E+02 -0.36918E+02 -0.18239E+01  0.23964E+01  0.15681E+02      982.00
  0.41182E+00  0.62214E+02    0.22500E+00  0.22500E+00 -0.45000E+00  0.00000E+00  0.00000E+00  0.00000E+00    0.19250E+02  0.17772E+02 -0.37022E+02 -0.18374E+01  0.23696E+01  0.15897E+02      982.00
  0.43413E+00  0.62506E+02    0.23750E+00  0.23750E+00 -0.47500E+00  0.00000E+00  0.00000E+00  0.00000E+00    0.19234E+02  0.17888E+02 -0.37122E+02 -0.18539E+01  0.23454E+01  0.16106E+02      982.00
  0.45640E+00  0.62764E+02    0.25000E+00  0.25000E+00 -0.50000E+00  0.00000E+00  0.00000E+00  0.00000E+00    0.19203E+02  0.18007E+02 -0.37210E+02 -0.18771E+01  0.23126E+01  0.16292E+02      982.00
  0.47864E+00  0.62999E+02    0.26250E+00  0.26250E+00 -0.52500E+00  0.00000E+00  0.00000E+00  0.00000E+00    0.19162E+02  0.18126E+02 -0.37288E+02 -0.19029E+01  0.22773E+01  0.16465E+02      982.00
  0.50083E+00  0.63214E+02    0.27500E+00  0.27500E+00 -0.55000E+00  0.00000E+00  0.00000E+00  0.00000E+00    0.19112E+02  0.18245E+02 -0.37357E+02 -0.19305E+01  0.22403E+01  0.16624E+02      982.00
  0.52299E+00  0.63417E+02    0.28750E+00  0.28750E+00 -0.57500E+00  0.00000E+00  0.00000E+00  0.00000E+00    0.19061E+02  0.18364E+02 -0.37424E+02 -0.19580E+01  0.22043E+01  0.16773E+02      982.00
  0.54512E+00  0.63603E+02    0.30000E+00  0.30000E+00 -0.60000E+00  0.00000E+00  0.00000E+00  0.00000E+00    0.19007E+02  0.18480E+02 -0.37486E+02 -0.19839E+01  0.21688E+01  0.16906E+02      982.00
  0.56722E+00  0.63785E+02    0.31250E+00  0.31250E+00 -0.62500E+00  0.00000E+00  0.00000E+00  0.00000E+00    0.18953E+02  0.18596E+02 -0.37548E+02 -0.20094E+01  0.21320E+01  0.17034E+02      982.00
  0.58930E+00  0.63942E+02    0.32500E+00  0.32500E+00 -0.65000E+00  0.00000E+00  0.00000E+00  0.00000E+00    0.18897E+02  0.18705E+02 -0.37602E+02 -0.20329E+01  0.20999E+01  0.17142E+02      982.00
  0.61135E+00  0.64094E+02    0.33750E+00  0.33750E+00 -0.67500E+00  0.00000E+00  0.00000E+00  0.00000E+00    0.18847E+02  0.18807E+02 -0.37654E+02 -0.20508E+01  0.20698E+01  0.17247E+02      982.00
  0.63338E+00  0.64199E+02    0.35000E+00  0.35000E+00 -0.70000E+00  0.00000E+00  0.00000E+00  0.00000E+00    0.18786E+02  0.18905E+02 -0.37690E+02 -0.20689E+01  0.20339E+01  0.17320E+02      982.00
  0.65540E+00  0.64329E+02    0.36250E+00  0.36250E+00 -0.72500E+00  0.00000E+00  0.00000E+00  0.00000E+00    0.18742E+02  0.18995E+02 -0.37737E+02 -0.20809E+01  0.20092E+01  0.17405E+02      982.00
  0.67740E+00  0.64445E+02    0.37500E+00  0.37500E+00 -0.75000E+00  0.00000E+00  0.00000E+00  0.00000E+00    0.18701E+02  0.19077E+02 -0.37778E+02 -0.20899E+01  0.19877E+01  0.17482E+02      982.00
  0.69938E+00  0.64559E+02    0.38750E+00  0.38750E+00 -0.77500E+00  0.00000E+00  0.00000E+00  0.00000E+00    0.18666E+02  0.19156E+02 -0.37821E+02 -0.20964E+01  0.19690E+01  0.17553E+02      982.00
  0.72135E+00  0.64665E+02    0.40000E+00  0.40000E+00 -0.80000E+00  0.00000E+00  0.00000E+00  0.00000E+00    0.18633E+02  0.19228E+02 -0.37861E+02 -0.21008E+01  0.19524E+01  0.17620E+02      982.00
  0.74331E+00  0.64761E+02    0.41250E+00  0.41250E+00 -0.82500E+00  0.00000E+00  0.00000E+00  0.00000E+00    0.18603E+02  0.19295E+02 -0.37898E+02 -0.21031E+01  0.19370E+01  0.17677E+02      982.00
  0.76525E+00  0.64827E+02    0.42500E+00  0.42500E+00 -0.85000E+00  0.00000E+00  0.00000E+00  0.00000E+00    0.18567E+02  0.19359E+02 -0.37926E+02 -0.21046E+01  0.19155E+01  0.17715E+02      982.00
  0.78719E+00  0.64916E+02    0.43750E+00  0.43750E+00 -0.87500E+00  0.00000E+00  0.00000E+00  0.00000E+00    0.18546E+02  0.19417E+02 -0.37962E+02 -0.21045E+01  0.19044E+01  0.17765E+02      982.00
  0.80912E+00  0.64989E+02    0.45000E+00  0.45000E+00 -0.90000E+00  0.00000E+00  0.00000E+00  0.00000E+00    0.18525E+02  0.19466E+02 -0.37990E+02 -0.21034E+01  0.18937E+01  0.17810E+02      982.00
  0.83104E+00  0.65062E+02    0.46250E+00  0.46250E+00 -0.92500E+00  0.00000E+00  0.00000E+00  0.00000E+00    0.18508E+02  0.19512E+02 -0.38020E+02 -0.21012E+01  0.18851E+01  0.17851E+02      982.00
  0.85295E+00  0.65125E+02    0.47500E+00  0.47500E+00 -0.95000E+00  0.00000E+00  0.00000E+00  0.00000E+00    0.18486E+02  0.19562E+02 -0.38048E+02 -0.20973E+01  0.18707E+01  0.17883E+02      982.00
  0.87486E+00  0.65191E+02    0.48750E+00  0.48750E+00 -0.97500E+00  0.00000E+00  0.00000E+00  0.00000E+00    0.18476E+02  0.19601E+02 -0.38077E+02 -0.20945E+01  0.18631E+01  0.17919E+02      982.00
  0.89677E+00  0.65218E+02    0.50000E+00  0.50000E+00 -0.10000E+01  0.00000E+00  0.00000E+00  0.00000E+00    0.18486E+02  0.19603E+02 -0.38090E+02 -0.20995E+01  0.18667E+01  0.17929E+02      982.00
