          Evm          Svm            E11          E22          E33          E23          E13          E12         SDEV11       SDEV22       SDEV33       SDEV23       SDEV13       SDEV12      TEMP
  0.00000E+00  0.61712E+02    0.00000E+00  0.00000E+00  0.00000E+00  0.00000E+00  0.00000E+00  0.00000E+00    0.18731E+02  0.18675E+02 -0.37405E+02 -0.12082E+01  0.11579E+01  0.14740E+02      982.00
  0.22730E-01  0.61705E+02    0.12500E-01  0.12500E-01 -0.25000E-01  0.00000E+00  0.00000E+00  0.00000E+00    0.18763E+02  0.18668E+02 -0.37431E+02 -0.11665E+01  0.11030E+01  0.14690E+02      982.00
  0.45478E-01  0.61716E+02    0.25000E-01  0.25000E-01 -0.50000E-01  0.00000E+00  0.00000E+00  0.00000E+00    0.18797E+02  0.18685E+02 -0.37482E+02 -0.11463E+01  0.10755E+01  0.14609E+02      982.00
  0.68253E-01  0.61737E+02    0.37500E-01  0.37500E-01 -0.75000E-01  0.00000E+00  0.00000E+00  0.00000E+00    0.18834E+02  0.18712E+02 -0.37547E+02 -0.11313E+01  0.10547E+01  0.14519E+02      982.00
  0.91059E-01  0.61790E+02    0.50000E-01  0.50000E-01 -0.10000E+00  0.00000E+00  0.00000E+00  0.00000E+00    0.18878E+02  0.18748E+02 -0.37626E+02 -0.11013E+01  0.10196E+01  0.14443E+02      982.00
  0.11389E+00  0.61872E+02    0.62500E-01  0.62500E-01 -0.12500E+00  0.00000E+00  0.00000E+00  0.00000E+00    0.18923E+02  0.18788E+02 -0.37711E+02 -0.10583E+01  0.97289E+00  0.14401E+02      982.00
  0.13675E+00  0.61991E+02    0.75000E-01  0.75000E-01 -0.15000E+00  0.00000E+00  0.00000E+00  0.00000E+00    0.18978E+02  0.18837E+02 -0.37814E+02 -0.10135E+01  0.92398E+00  0.14374E+02      982.00
  0.15963E+00  0.62139E+02    0.87500E-01  0.87500E-01 -0.17500E+00  0.00000E+00  0.00000E+00  0.00000E+00    0.19040E+02  0.18892E+02 -0.37932E+02 -0.96790E+00  0.87408E+00  0.14361E+02      982.00
  0.18252E+00  0.62337E+02    0.10000E+00  0.10000E+00 -0.20000E+00  0.00000E+00  0.00000E+00  0.00000E+00    0.19113E+02  0.18956E+02 -0.38068E+02 -0.91630E+00  0.81658E+00  0.14384E+02      982.00
  0.20542E+00  0.62564E+02    0.11250E+00  0.11250E+00 -0.22500E+00  0.00000E+00  0.00000E+00  0.00000E+00    0.19192E+02  0.19023E+02 -0.38215E+02 -0.87129E+00  0.76505E+00  0.14426E+02      982.00
  0.22832E+00  0.62810E+02    0.12500E+00  0.12500E+00 -0.25000E+00  0.00000E+00  0.00000E+00  0.00000E+00    0.19274E+02  0.19093E+02 -0.38367E+02 -0.83634E+00  0.72354E+00  0.14483E+02      982.00
  0.25123E+00  0.63064E+02    0.13750E+00  0.13750E+00 -0.27500E+00  0.00000E+00  0.00000E+00  0.00000E+00    0.19359E+02  0.19164E+02 -0.38523E+02 -0.81613E+00  0.69602E+00  0.14544E+02      982.00
  0.27414E+00  0.63331E+02    0.15000E+00  0.15000E+00 -0.30000E+00  0.00000E+00  0.00000E+00  0.00000E+00    0.19447E+02  0.19238E+02 -0.38685E+02 -0.81298E+00  0.68489E+00  0.14609E+02      982.00
  0.29704E+00  0.63620E+02    0.16250E+00  0.16250E+00 -0.32500E+00  0.00000E+00  0.00000E+00  0.00000E+00    0.19543E+02  0.19314E+02 -0.38856E+02 -0.82791E+00  0.68974E+00  0.14684E+02      982.00
  0.31995E+00  0.63924E+02    0.17500E+00  0.17500E+00 -0.35000E+00  0.00000E+00  0.00000E+00  0.00000E+00    0.19647E+02  0.19396E+02 -0.39043E+02 -0.87250E+00  0.72221E+00  0.14750E+02      982.00
  0.34285E+00  0.64170E+02    0.18750E+00  0.18750E+00 -0.37500E+00  0.00000E+00  0.00000E+00  0.00000E+00    0.19737E+02  0.19467E+02 -0.39204E+02 -0.94366E+00  0.78245E+00  0.14777E+02      982.00
  0.36576E+00  0.64372E+02    0.20000E+00  0.20000E+00 -0.40000E+00  0.00000E+00  0.00000E+00  0.00000E+00    0.19808E+02  0.19535E+02 -0.39343E+02 -0.10115E+01  0.84479E+00  0.14786E+02      982.00
  0.38868E+00  0.64621E+02    0.21250E+00  0.21250E+00 -0.42500E+00  0.00000E+00  0.00000E+00  0.00000E+00    0.19895E+02  0.19614E+02 -0.39509E+02 -0.11075E+01  0.93188E+00  0.14803E+02      982.00
  0.41161E+00  0.64865E+02    0.22500E+00  0.22500E+00 -0.45000E+00  0.00000E+00  0.00000E+00  0.00000E+00    0.19987E+02  0.19691E+02 -0.39678E+02 -0.12297E+01  0.10421E+01  0.14802E+02      982.00
  0.43455E+00  0.65098E+02    0.23750E+00  0.23750E+00 -0.47500E+00  0.00000E+00  0.00000E+00  0.00000E+00    0.20079E+02  0.19769E+02 -0.39848E+02 -0.13683E+01  0.11683E+01  0.14779E+02      982.00
  0.45750E+00  0.65338E+02    0.25000E+00  0.25000E+00 -0.50000E+00  0.00000E+00  0.00000E+00  0.00000E+00    0.20172E+02  0.19852E+02 -0.40024E+02 -0.15080E+01  0.12957E+01  0.14752E+02      982.00
  0.48047E+00  0.65558E+02    0.26250E+00  0.26250E+00 -0.52500E+00  0.00000E+00  0.00000E+00  0.00000E+00    0.20263E+02  0.19930E+02 -0.40193E+02 -0.16598E+01  0.14339E+01  0.14701E+02      982.00
  0.50346E+00  0.65771E+02    0.27500E+00  0.27500E+00 -0.55000E+00  0.00000E+00  0.00000E+00  0.00000E+00    0.20353E+02  0.20010E+02 -0.40364E+02 -0.18102E+01  0.15708E+01  0.14637E+02      982.00
  0.52648E+00  0.65979E+02    0.28750E+00  0.28750E+00 -0.57500E+00  0.00000E+00  0.00000E+00  0.00000E+00    0.20444E+02  0.20091E+02 -0.40536E+02 -0.19552E+01  0.17021E+01  0.14559E+02      982.00
  0.54952E+00  0.66184E+02    0.30000E+00  0.30000E+00 -0.60000E+00  0.00000E+00  0.00000E+00  0.00000E+00    0.20533E+02  0.20173E+02 -0.40706E+02 -0.20903E+01  0.18237E+01  0.14478E+02      982.00
  0.57258E+00  0.66370E+02    0.31250E+00  0.31250E+00 -0.62500E+00  0.00000E+00  0.00000E+00  0.00000E+00    0.20618E+02  0.20250E+02 -0.40869E+02 -0.22240E+01  0.19434E+01  0.14383E+02      982.00
  0.59567E+00  0.66559E+02    0.32500E+00  0.32500E+00 -0.65000E+00  0.00000E+00  0.00000E+00  0.00000E+00    0.20703E+02  0.20330E+02 -0.41033E+02 -0.23360E+01  0.20424E+01  0.14292E+02      982.00
  0.61879E+00  0.66745E+02    0.33750E+00  0.33750E+00 -0.67500E+00  0.00000E+00  0.00000E+00  0.00000E+00    0.20785E+02  0.20410E+02 -0.41195E+02 -0.24343E+01  0.21284E+01  0.14202E+02      982.00
  0.64194E+00  0.66920E+02    0.35000E+00  0.35000E+00 -0.70000E+00  0.00000E+00  0.00000E+00  0.00000E+00    0.20864E+02  0.20488E+02 -0.41351E+02 -0.25208E+01  0.22029E+01  0.14109E+02      982.00
  0.66511E+00  0.67091E+02    0.36250E+00  0.36250E+00 -0.72500E+00  0.00000E+00  0.00000E+00  0.00000E+00    0.20940E+02  0.20564E+02 -0.41504E+02 -0.25958E+01  0.22662E+01  0.14020E+02      982.00
  0.68831E+00  0.67258E+02    0.37500E+00  0.37500E+00 -0.75000E+00  0.00000E+00  0.00000E+00  0.00000E+00    0.21014E+02  0.20640E+02 -0.41654E+02 -0.26596E+01  0.23191E+01  0.13933E+02      982.00
  0.71153E+00  0.67406E+02    0.38750E+00  0.38750E+00 -0.77500E+00  0.00000E+00  0.00000E+00  0.00000E+00    0.21082E+02  0.20710E+02 -0.41792E+02 -0.27240E+01  0.23720E+01  0.13838E+02      982.00
  0.73478E+00  0.67557E+02    0.40000E+00  0.40000E+00 -0.80000E+00  0.00000E+00  0.00000E+00  0.00000E+00    0.21148E+02  0.20780E+02 -0.41928E+02 -0.27691E+01  0.24070E+01  0.13759E+02      982.00
  0.75805E+00  0.67694E+02    0.41250E+00  0.41250E+00 -0.82500E+00  0.00000E+00  0.00000E+00  0.00000E+00    0.21209E+02  0.20845E+02 -0.42054E+02 -0.28013E+01  0.24295E+01  0.13687E+02      982.00
  0.78135E+00  0.67819E+02    0.42500E+00  0.42500E+00 -0.85000E+00  0.00000E+00  0.00000E+00  0.00000E+00    0.21264E+02  0.20906E+02 -0.42169E+02 -0.28421E+01  0.24598E+01  0.13613E+02      982.00
  0.80467E+00  0.67949E+02    0.43750E+00  0.43750E+00 -0.87500E+00  0.00000E+00  0.00000E+00  0.00000E+00    0.21320E+02  0.20969E+02 -0.42289E+02 -0.28648E+01  0.24743E+01  0.13542E+02      982.00
  0.82801E+00  0.68075E+02    0.45000E+00  0.45000E+00 -0.90000E+00  0.00000E+00  0.00000E+00  0.00000E+00    0.21374E+02  0.21031E+02 -0.42405E+02 -0.28822E+01  0.24827E+01  0.13477E+02      982.00
  0.85136E+00  0.68188E+02    0.46250E+00  0.46250E+00 -0.92500E+00  0.00000E+00  0.00000E+00  0.00000E+00    0.21423E+02  0.21088E+02 -0.42511E+02 -0.28942E+01  0.24873E+01  0.13413E+02      982.00
  0.87474E+00  0.68298E+02    0.47500E+00  0.47500E+00 -0.95000E+00  0.00000E+00  0.00000E+00  0.00000E+00    0.21469E+02  0.21146E+02 -0.42615E+02 -0.29094E+01  0.24930E+01  0.13348E+02      982.00
  0.89814E+00  0.68403E+02    0.48750E+00  0.48750E+00 -0.97500E+00  0.00000E+00  0.00000E+00  0.00000E+00    0.21513E+02  0.21199E+02 -0.42712E+02 -0.29145E+01  0.24900E+01  0.13295E+02      982.00
  0.92156E+00  0.68508E+02    0.50000E+00  0.50000E+00 -0.10000E+01  0.00000E+00  0.00000E+00  0.00000E+00    0.21558E+02  0.21257E+02 -0.42815E+02 -0.29190E+01  0.24843E+01  0.13225E+02      982.00
