          Evm          Svm            E11          E22          E33          E23          E13          E12         SDEV11       SDEV22       SDEV33       SDEV23       SDEV13       SDEV12      TEMP
  0.00000E+00  0.61429E+02    0.00000E+00  0.00000E+00  0.00000E+00  0.00000E+00  0.00000E+00  0.00000E+00    0.19459E+02  0.19411E+02 -0.38871E+02 -0.55458E+01 -0.57468E+01 -0.78014E+01      982.00
  0.23729E-01  0.61313E+02    0.12500E-01  0.12500E-01 -0.25000E-01  0.00000E+00  0.00000E+00  0.00000E+00    0.19645E+02  0.19276E+02 -0.38921E+02 -0.51937E+01 -0.57597E+01 -0.75367E+01      982.00
  0.47533E-01  0.61295E+02    0.25000E-01  0.25000E-01 -0.50000E-01  0.00000E+00  0.00000E+00  0.00000E+00    0.19787E+02  0.19212E+02 -0.39000E+02 -0.49046E+01 -0.58335E+01 -0.73130E+01      982.00
  0.71393E-01  0.61355E+02    0.37500E-01  0.37500E-01 -0.75000E-01  0.00000E+00  0.00000E+00  0.00000E+00    0.19917E+02  0.19185E+02 -0.39102E+02 -0.46688E+01 -0.59361E+01 -0.71332E+01      982.00
  0.95292E-01  0.61472E+02    0.50000E-01  0.50000E-01 -0.10000E+00  0.00000E+00  0.00000E+00  0.00000E+00    0.20047E+02  0.19178E+02 -0.39225E+02 -0.44803E+01 -0.60378E+01 -0.69944E+01      982.00
  0.11922E+00  0.61640E+02    0.62500E-01  0.62500E-01 -0.12500E+00  0.00000E+00  0.00000E+00  0.00000E+00    0.20186E+02  0.19183E+02 -0.39369E+02 -0.43321E+01 -0.61248E+01 -0.68934E+01      982.00
  0.14317E+00  0.61850E+02    0.75000E-01  0.75000E-01 -0.15000E+00  0.00000E+00  0.00000E+00  0.00000E+00    0.20337E+02  0.19196E+02 -0.39533E+02 -0.42174E+01 -0.61906E+01 -0.68243E+01      982.00
  0.16714E+00  0.62099E+02    0.87500E-01  0.87500E-01 -0.17500E+00  0.00000E+00  0.00000E+00  0.00000E+00    0.20515E+02  0.19202E+02 -0.39717E+02 -0.41236E+01 -0.62406E+01 -0.67804E+01      982.00
  0.19113E+00  0.62377E+02    0.10000E+00  0.10000E+00 -0.20000E+00  0.00000E+00  0.00000E+00  0.00000E+00    0.20712E+02  0.19204E+02 -0.39917E+02 -0.40480E+01 -0.62731E+01 -0.67553E+01      982.00
  0.21512E+00  0.62683E+02    0.11250E+00  0.11250E+00 -0.22500E+00  0.00000E+00  0.00000E+00  0.00000E+00    0.20932E+02  0.19200E+02 -0.40132E+02 -0.39867E+01 -0.62937E+01 -0.67459E+01      982.00
  0.23913E+00  0.63009E+02    0.12500E+00  0.12500E+00 -0.25000E+00  0.00000E+00  0.00000E+00  0.00000E+00    0.21173E+02  0.19186E+02 -0.40359E+02 -0.39355E+01 -0.63044E+01 -0.67461E+01      982.00
  0.26315E+00  0.63348E+02    0.13750E+00  0.13750E+00 -0.27500E+00  0.00000E+00  0.00000E+00  0.00000E+00    0.21430E+02  0.19164E+02 -0.40593E+02 -0.38924E+01 -0.63070E+01 -0.67518E+01      982.00
  0.28718E+00  0.63695E+02    0.15000E+00  0.15000E+00 -0.30000E+00  0.00000E+00  0.00000E+00  0.00000E+00    0.21705E+02  0.19127E+02 -0.40832E+02 -0.38525E+01 -0.63048E+01 -0.67584E+01      982.00
  0.31122E+00  0.64042E+02    0.16250E+00  0.16250E+00 -0.32500E+00  0.00000E+00  0.00000E+00  0.00000E+00    0.21982E+02  0.19088E+02 -0.41070E+02 -0.38215E+01 -0.62949E+01 -0.67658E+01      982.00
  0.33527E+00  0.64385E+02    0.17500E+00  0.17500E+00 -0.35000E+00  0.00000E+00  0.00000E+00  0.00000E+00    0.22263E+02  0.19041E+02 -0.41304E+02 -0.37950E+01 -0.62799E+01 -0.67709E+01      982.00
  0.35933E+00  0.64718E+02    0.18750E+00  0.18750E+00 -0.37500E+00  0.00000E+00  0.00000E+00  0.00000E+00    0.22544E+02  0.18988E+02 -0.41532E+02 -0.37724E+01 -0.62605E+01 -0.67725E+01      982.00
  0.38339E+00  0.65040E+02    0.20000E+00  0.20000E+00 -0.40000E+00  0.00000E+00  0.00000E+00  0.00000E+00    0.22824E+02  0.18929E+02 -0.41752E+02 -0.37531E+01 -0.62374E+01 -0.67698E+01      982.00
  0.40746E+00  0.65347E+02    0.21250E+00  0.21250E+00 -0.42500E+00  0.00000E+00  0.00000E+00  0.00000E+00    0.23104E+02  0.18859E+02 -0.41963E+02 -0.37327E+01 -0.62133E+01 -0.67612E+01      982.00
  0.43155E+00  0.65641E+02    0.22500E+00  0.22500E+00 -0.45000E+00  0.00000E+00  0.00000E+00  0.00000E+00    0.23372E+02  0.18793E+02 -0.42165E+02 -0.37202E+01 -0.61833E+01 -0.67497E+01      982.00
  0.45563E+00  0.65915E+02    0.23750E+00  0.23750E+00 -0.47500E+00  0.00000E+00  0.00000E+00  0.00000E+00    0.23633E+02  0.18720E+02 -0.42353E+02 -0.37084E+01 -0.61513E+01 -0.67332E+01      982.00
  0.47973E+00  0.66174E+02    0.25000E+00  0.25000E+00 -0.50000E+00  0.00000E+00  0.00000E+00  0.00000E+00    0.23891E+02  0.18639E+02 -0.42531E+02 -0.36932E+01 -0.61193E+01 -0.67109E+01      982.00
  0.50383E+00  0.66414E+02    0.26250E+00  0.26250E+00 -0.52500E+00  0.00000E+00  0.00000E+00  0.00000E+00    0.24135E+02  0.18561E+02 -0.42696E+02 -0.36848E+01 -0.60835E+01 -0.66862E+01      982.00
  0.52794E+00  0.66639E+02    0.27500E+00  0.27500E+00 -0.55000E+00  0.00000E+00  0.00000E+00  0.00000E+00    0.24370E+02  0.18481E+02 -0.42851E+02 -0.36778E+01 -0.60461E+01 -0.66579E+01      982.00
  0.55205E+00  0.66847E+02    0.28750E+00  0.28750E+00 -0.57500E+00  0.00000E+00  0.00000E+00  0.00000E+00    0.24600E+02  0.18394E+02 -0.42994E+02 -0.36662E+01 -0.60108E+01 -0.66257E+01      982.00
  0.57617E+00  0.67041E+02    0.30000E+00  0.30000E+00 -0.60000E+00  0.00000E+00  0.00000E+00  0.00000E+00    0.24818E+02  0.18311E+02 -0.43129E+02 -0.36611E+01 -0.59713E+01 -0.65911E+01      982.00
  0.60030E+00  0.67222E+02    0.31250E+00  0.31250E+00 -0.62500E+00  0.00000E+00  0.00000E+00  0.00000E+00    0.25026E+02  0.18228E+02 -0.43254E+02 -0.36573E+01 -0.59309E+01 -0.65541E+01      982.00
  0.62443E+00  0.67386E+02    0.32500E+00  0.32500E+00 -0.65000E+00  0.00000E+00  0.00000E+00  0.00000E+00    0.25230E+02  0.18138E+02 -0.43368E+02 -0.36482E+01 -0.58949E+01 -0.65147E+01      982.00
  0.64856E+00  0.67542E+02    0.33750E+00  0.33750E+00 -0.67500E+00  0.00000E+00  0.00000E+00  0.00000E+00    0.25422E+02  0.18054E+02 -0.43476E+02 -0.36459E+01 -0.58536E+01 -0.64733E+01      982.00
  0.67270E+00  0.67686E+02    0.35000E+00  0.35000E+00 -0.70000E+00  0.00000E+00  0.00000E+00  0.00000E+00    0.25606E+02  0.17970E+02 -0.43576E+02 -0.36444E+01 -0.58118E+01 -0.64302E+01      982.00
  0.69684E+00  0.67817E+02    0.36250E+00  0.36250E+00 -0.72500E+00  0.00000E+00  0.00000E+00  0.00000E+00    0.25789E+02  0.17877E+02 -0.43666E+02 -0.36365E+01 -0.57762E+01 -0.63843E+01      982.00
  0.72099E+00  0.67942E+02    0.37500E+00  0.37500E+00 -0.75000E+00  0.00000E+00  0.00000E+00  0.00000E+00    0.25959E+02  0.17794E+02 -0.43753E+02 -0.36358E+01 -0.57342E+01 -0.63382E+01      982.00
  0.74513E+00  0.68057E+02    0.38750E+00  0.38750E+00 -0.77500E+00  0.00000E+00  0.00000E+00  0.00000E+00    0.26122E+02  0.17712E+02 -0.43834E+02 -0.36361E+01 -0.56921E+01 -0.62909E+01      982.00
  0.76929E+00  0.68155E+02    0.40000E+00  0.40000E+00 -0.80000E+00  0.00000E+00  0.00000E+00  0.00000E+00    0.26272E+02  0.17629E+02 -0.43902E+02 -0.36282E+01 -0.56551E+01 -0.62464E+01      982.00
  0.79344E+00  0.68255E+02    0.41250E+00  0.41250E+00 -0.82500E+00  0.00000E+00  0.00000E+00  0.00000E+00    0.26423E+02  0.17549E+02 -0.43972E+02 -0.36295E+01 -0.56132E+01 -0.61971E+01      982.00
  0.81760E+00  0.68348E+02    0.42500E+00  0.42500E+00 -0.85000E+00  0.00000E+00  0.00000E+00  0.00000E+00    0.26567E+02  0.17469E+02 -0.44037E+02 -0.36314E+01 -0.55714E+01 -0.61472E+01      982.00
  0.84176E+00  0.68431E+02    0.43750E+00  0.43750E+00 -0.87500E+00  0.00000E+00  0.00000E+00  0.00000E+00    0.26717E+02  0.17377E+02 -0.44094E+02 -0.36297E+01 -0.55333E+01 -0.60908E+01      982.00
  0.86593E+00  0.68511E+02    0.45000E+00  0.45000E+00 -0.90000E+00  0.00000E+00  0.00000E+00  0.00000E+00    0.26851E+02  0.17300E+02 -0.44151E+02 -0.36320E+01 -0.54918E+01 -0.60393E+01      982.00
  0.89009E+00  0.68518E+02    0.46250E+00  0.46250E+00 -0.92500E+00  0.00000E+00  0.00000E+00  0.00000E+00    0.26956E+02  0.17215E+02 -0.44171E+02 -0.36252E+01 -0.54009E+01 -0.59642E+01      982.00
  0.91427E+00  0.68526E+02    0.47500E+00  0.47500E+00 -0.95000E+00  0.00000E+00  0.00000E+00  0.00000E+00    0.27038E+02  0.17149E+02 -0.44187E+02 -0.36187E+01 -0.53347E+01 -0.59075E+01      982.00
  0.93845E+00  0.68540E+02    0.48750E+00  0.48750E+00 -0.97500E+00  0.00000E+00  0.00000E+00  0.00000E+00    0.27093E+02  0.17109E+02 -0.44202E+02 -0.36202E+01 -0.52926E+01 -0.58756E+01      982.00
  0.96263E+00  0.68555E+02    0.50000E+00  0.50000E+00 -0.10000E+01  0.00000E+00  0.00000E+00  0.00000E+00    0.27184E+02  0.17037E+02 -0.44220E+02 -0.36166E+01 -0.52358E+01 -0.58136E+01      982.00
