          Evm          Svm            E11          E22          E33          E23          E13          E12         SDEV11       SDEV22       SDEV33       SDEV23       SDEV13       SDEV12      TEMP
  0.00000E+00  0.60010E+02    0.00000E+00  0.00000E+00  0.00000E+00  0.00000E+00  0.00000E+00  0.00000E+00    0.19178E+02  0.14787E+02 -0.33965E+02  0.60604E+00 -0.43461E+00  0.18161E+02      982.00
  0.21224E-01  0.60166E+02    0.12500E-01  0.12500E-01 -0.25000E-01  0.00000E+00  0.00000E+00  0.00000E+00    0.19309E+02  0.14752E+02 -0.34061E+02  0.11815E+01 -0.92876E+00  0.18141E+02      982.00
  0.42454E-01  0.60341E+02    0.25000E-01  0.25000E-01 -0.50000E-01  0.00000E+00  0.00000E+00  0.00000E+00    0.19443E+02  0.14746E+02 -0.34188E+02  0.17051E+01 -0.13823E+01  0.18075E+02      982.00
  0.63701E-01  0.60520E+02    0.37500E-01  0.37500E-01 -0.75000E-01  0.00000E+00  0.00000E+00  0.00000E+00    0.19603E+02  0.14742E+02 -0.34345E+02  0.22133E+01 -0.18330E+01  0.17946E+02      982.00
  0.84982E-01  0.60690E+02    0.50000E-01  0.50000E-01 -0.10000E+00  0.00000E+00  0.00000E+00  0.00000E+00    0.19787E+02  0.14737E+02 -0.34525E+02  0.26980E+01 -0.22779E+01  0.17747E+02      982.00
  0.10631E+00  0.60848E+02    0.62500E-01  0.62500E-01 -0.12500E+00  0.00000E+00  0.00000E+00  0.00000E+00    0.19991E+02  0.14732E+02 -0.34723E+02  0.31430E+01 -0.27055E+01  0.17486E+02      982.00
  0.12771E+00  0.61004E+02    0.75000E-01  0.75000E-01 -0.15000E+00  0.00000E+00  0.00000E+00  0.00000E+00    0.20206E+02  0.14733E+02 -0.34939E+02  0.35265E+01 -0.30952E+01  0.17188E+02      982.00
  0.14919E+00  0.61173E+02    0.87500E-01  0.87500E-01 -0.17500E+00  0.00000E+00  0.00000E+00  0.00000E+00    0.20429E+02  0.14743E+02 -0.35172E+02  0.38381E+01 -0.34326E+01  0.16882E+02      982.00
  0.17075E+00  0.61368E+02    0.10000E+00  0.10000E+00 -0.20000E+00  0.00000E+00  0.00000E+00  0.00000E+00    0.20654E+02  0.14766E+02 -0.35420E+02  0.40751E+01 -0.37085E+01  0.16595E+02      982.00
  0.19240E+00  0.61592E+02    0.11250E+00  0.11250E+00 -0.22500E+00  0.00000E+00  0.00000E+00  0.00000E+00    0.20879E+02  0.14802E+02 -0.35681E+02  0.42499E+01 -0.39282E+01  0.16339E+02      982.00
  0.21412E+00  0.61842E+02    0.12500E+00  0.12500E+00 -0.25000E+00  0.00000E+00  0.00000E+00  0.00000E+00    0.21101E+02  0.14852E+02 -0.35953E+02  0.43779E+01 -0.41017E+01  0.16113E+02      982.00
  0.23592E+00  0.62113E+02    0.13750E+00  0.13750E+00 -0.27500E+00  0.00000E+00  0.00000E+00  0.00000E+00    0.21317E+02  0.14914E+02 -0.36231E+02  0.44723E+01 -0.42389E+01  0.15914E+02      982.00
  0.25780E+00  0.62396E+02    0.15000E+00  0.15000E+00 -0.30000E+00  0.00000E+00  0.00000E+00  0.00000E+00    0.21525E+02  0.14988E+02 -0.36513E+02  0.45429E+01 -0.43477E+01  0.15735E+02      982.00
  0.27974E+00  0.62681E+02    0.16250E+00  0.16250E+00 -0.32500E+00  0.00000E+00  0.00000E+00  0.00000E+00    0.21721E+02  0.15071E+02 -0.36792E+02  0.45968E+01 -0.44350E+01  0.15574E+02      982.00
  0.30175E+00  0.62974E+02    0.17500E+00  0.17500E+00 -0.35000E+00  0.00000E+00  0.00000E+00  0.00000E+00    0.21901E+02  0.15168E+02 -0.37069E+02  0.46377E+01 -0.45042E+01  0.15434E+02      982.00
  0.32383E+00  0.63257E+02    0.18750E+00  0.18750E+00 -0.37500E+00  0.00000E+00  0.00000E+00  0.00000E+00    0.22070E+02  0.15267E+02 -0.37337E+02  0.46732E+01 -0.45641E+01  0.15298E+02      982.00
  0.34596E+00  0.63531E+02    0.20000E+00  0.20000E+00 -0.40000E+00  0.00000E+00  0.00000E+00  0.00000E+00    0.22225E+02  0.15371E+02 -0.37596E+02  0.47058E+01 -0.46175E+01  0.15170E+02      982.00
  0.36815E+00  0.63817E+02    0.21250E+00  0.21250E+00 -0.42500E+00  0.00000E+00  0.00000E+00  0.00000E+00    0.22367E+02  0.15491E+02 -0.37858E+02  0.47292E+01 -0.46574E+01  0.15058E+02      982.00
  0.39040E+00  0.64095E+02    0.22500E+00  0.22500E+00 -0.45000E+00  0.00000E+00  0.00000E+00  0.00000E+00    0.22498E+02  0.15615E+02 -0.38113E+02  0.47488E+01 -0.46904E+01  0.14951E+02      982.00
  0.41270E+00  0.64351E+02    0.23750E+00  0.23750E+00 -0.47500E+00  0.00000E+00  0.00000E+00  0.00000E+00    0.22614E+02  0.15739E+02 -0.38353E+02  0.47725E+01 -0.47260E+01  0.14839E+02      982.00
  0.43505E+00  0.64610E+02    0.25000E+00  0.25000E+00 -0.50000E+00  0.00000E+00  0.00000E+00  0.00000E+00    0.22722E+02  0.15869E+02 -0.38591E+02  0.47857E+01 -0.47473E+01  0.14743E+02      982.00
  0.45744E+00  0.64859E+02    0.26250E+00  0.26250E+00 -0.52500E+00  0.00000E+00  0.00000E+00  0.00000E+00    0.22820E+02  0.16001E+02 -0.38820E+02  0.47955E+01 -0.47629E+01  0.14650E+02      982.00
  0.47989E+00  0.65095E+02    0.27500E+00  0.27500E+00 -0.55000E+00  0.00000E+00  0.00000E+00  0.00000E+00    0.22908E+02  0.16132E+02 -0.39040E+02  0.48025E+01 -0.47735E+01  0.14562E+02      982.00
  0.50238E+00  0.65320E+02    0.28750E+00  0.28750E+00 -0.57500E+00  0.00000E+00  0.00000E+00  0.00000E+00    0.22988E+02  0.16262E+02 -0.39250E+02  0.48068E+01 -0.47796E+01  0.14477E+02      982.00
  0.52491E+00  0.65529E+02    0.30000E+00  0.30000E+00 -0.60000E+00  0.00000E+00  0.00000E+00  0.00000E+00    0.23054E+02  0.16396E+02 -0.39450E+02  0.48150E+01 -0.47894E+01  0.14384E+02      982.00
  0.54749E+00  0.65730E+02    0.31250E+00  0.31250E+00 -0.62500E+00  0.00000E+00  0.00000E+00  0.00000E+00    0.23117E+02  0.16523E+02 -0.39640E+02  0.48138E+01 -0.47866E+01  0.14306E+02      982.00
  0.57010E+00  0.65920E+02    0.32500E+00  0.32500E+00 -0.65000E+00  0.00000E+00  0.00000E+00  0.00000E+00    0.23174E+02  0.16646E+02 -0.39821E+02  0.48097E+01 -0.47794E+01  0.14233E+02      982.00
  0.59276E+00  0.66098E+02    0.33750E+00  0.33750E+00 -0.67500E+00  0.00000E+00  0.00000E+00  0.00000E+00    0.23225E+02  0.16766E+02 -0.39991E+02  0.48036E+01 -0.47690E+01  0.14163E+02      982.00
  0.61545E+00  0.66266E+02    0.35000E+00  0.35000E+00 -0.70000E+00  0.00000E+00  0.00000E+00  0.00000E+00    0.23271E+02  0.16882E+02 -0.40153E+02  0.47955E+01 -0.47556E+01  0.14096E+02      982.00
  0.63817E+00  0.66423E+02    0.36250E+00  0.36250E+00 -0.72500E+00  0.00000E+00  0.00000E+00  0.00000E+00    0.23304E+02  0.17006E+02 -0.40310E+02  0.47880E+01 -0.47426E+01  0.14023E+02      982.00
  0.66093E+00  0.66569E+02    0.37500E+00  0.37500E+00 -0.75000E+00  0.00000E+00  0.00000E+00  0.00000E+00    0.23339E+02  0.17115E+02 -0.40453E+02  0.47762E+01 -0.47236E+01  0.13964E+02      982.00
  0.68371E+00  0.66706E+02    0.38750E+00  0.38750E+00 -0.77500E+00  0.00000E+00  0.00000E+00  0.00000E+00    0.23371E+02  0.17218E+02 -0.40588E+02  0.47627E+01 -0.47022E+01  0.13908E+02      982.00
  0.70653E+00  0.66834E+02    0.40000E+00  0.40000E+00 -0.80000E+00  0.00000E+00  0.00000E+00  0.00000E+00    0.23400E+02  0.17316E+02 -0.40715E+02  0.47481E+01 -0.46794E+01  0.13854E+02      982.00
  0.72938E+00  0.66954E+02    0.41250E+00  0.41250E+00 -0.82500E+00  0.00000E+00  0.00000E+00  0.00000E+00    0.23426E+02  0.17410E+02 -0.40835E+02  0.47327E+01 -0.46553E+01  0.13804E+02      982.00
  0.75225E+00  0.67066E+02    0.42500E+00  0.42500E+00 -0.85000E+00  0.00000E+00  0.00000E+00  0.00000E+00    0.23449E+02  0.17499E+02 -0.40948E+02  0.47167E+01 -0.46305E+01  0.13755E+02      982.00
  0.77514E+00  0.67170E+02    0.43750E+00  0.43750E+00 -0.87500E+00  0.00000E+00  0.00000E+00  0.00000E+00    0.23469E+02  0.17584E+02 -0.41053E+02  0.47002E+01 -0.46051E+01  0.13709E+02      982.00
  0.79806E+00  0.67267E+02    0.45000E+00  0.45000E+00 -0.90000E+00  0.00000E+00  0.00000E+00  0.00000E+00    0.23488E+02  0.17665E+02 -0.41153E+02  0.46833E+01 -0.45793E+01  0.13666E+02      982.00
  0.82100E+00  0.67358E+02    0.46250E+00  0.46250E+00 -0.92500E+00  0.00000E+00  0.00000E+00  0.00000E+00    0.23505E+02  0.17741E+02 -0.41246E+02  0.46663E+01 -0.45533E+01  0.13624E+02      982.00
  0.84397E+00  0.67444E+02    0.47500E+00  0.47500E+00 -0.95000E+00  0.00000E+00  0.00000E+00  0.00000E+00    0.23527E+02  0.17806E+02 -0.41333E+02  0.46537E+01 -0.45342E+01  0.13583E+02      982.00
  0.86695E+00  0.67523E+02    0.48750E+00  0.48750E+00 -0.97500E+00  0.00000E+00  0.00000E+00  0.00000E+00    0.23541E+02  0.17875E+02 -0.41416E+02  0.46373E+01 -0.45100E+01  0.13544E+02      982.00
  0.88995E+00  0.67597E+02    0.50000E+00  0.50000E+00 -0.10000E+01  0.00000E+00  0.00000E+00  0.00000E+00    0.23553E+02  0.17941E+02 -0.41494E+02  0.46208E+01 -0.44852E+01  0.13507E+02      982.00
