          Evm          Svm            E11          E22          E33          E23          E13          E12         SDEV11       SDEV22       SDEV33       SDEV23       SDEV13       SDEV12      TEMP
  0.00000E+00  0.53734E+02    0.00000E+00  0.00000E+00  0.00000E+00  0.00000E+00  0.00000E+00  0.00000E+00    0.14411E+02  0.18618E+02 -0.33030E+02 -0.58654E+01 -0.71223E+01 -0.73946E+01      982.00
  0.23051E-01  0.54187E+02    0.12500E-01  0.12500E-01 -0.25000E-01  0.00000E+00  0.00000E+00  0.00000E+00    0.14374E+02  0.18907E+02 -0.33281E+02 -0.59656E+01 -0.70861E+01 -0.75544E+01      982.00
  0.46083E-01  0.54598E+02    0.25000E-01  0.25000E-01 -0.50000E-01  0.00000E+00  0.00000E+00  0.00000E+00    0.14390E+02  0.19142E+02 -0.33532E+02 -0.59870E+01 -0.70675E+01 -0.76754E+01      982.00
  0.69114E-01  0.54989E+02    0.37500E-01  0.37500E-01 -0.75000E-01  0.00000E+00  0.00000E+00  0.00000E+00    0.14429E+02  0.19356E+02 -0.33785E+02 -0.59798E+01 -0.70404E+01 -0.77778E+01      982.00
  0.92154E-01  0.55368E+02    0.50000E-01  0.50000E-01 -0.10000E+00  0.00000E+00  0.00000E+00  0.00000E+00    0.14487E+02  0.19553E+02 -0.34040E+02 -0.59562E+01 -0.70023E+01 -0.78679E+01      982.00
  0.11521E+00  0.55741E+02    0.62500E-01  0.62500E-01 -0.12500E+00  0.00000E+00  0.00000E+00  0.00000E+00    0.14558E+02  0.19740E+02 -0.34298E+02 -0.59253E+01 -0.69523E+01 -0.79519E+01      982.00
  0.13828E+00  0.56121E+02    0.75000E-01  0.75000E-01 -0.15000E+00  0.00000E+00  0.00000E+00  0.00000E+00    0.14646E+02  0.19918E+02 -0.34564E+02 -0.58906E+01 -0.68976E+01 -0.80383E+01      982.00
  0.16138E+00  0.56510E+02    0.87500E-01  0.87500E-01 -0.17500E+00  0.00000E+00  0.00000E+00  0.00000E+00    0.14749E+02  0.20090E+02 -0.34838E+02 -0.58544E+01 -0.68372E+01 -0.81262E+01      982.00
  0.18450E+00  0.56910E+02    0.10000E+00  0.10000E+00 -0.20000E+00  0.00000E+00  0.00000E+00  0.00000E+00    0.14865E+02  0.20256E+02 -0.35121E+02 -0.58180E+01 -0.67732E+01 -0.82168E+01      982.00
  0.20764E+00  0.57324E+02    0.11250E+00  0.11250E+00 -0.22500E+00  0.00000E+00  0.00000E+00  0.00000E+00    0.14996E+02  0.20416E+02 -0.35412E+02 -0.57826E+01 -0.67078E+01 -0.83105E+01      982.00
  0.23080E+00  0.57740E+02    0.12500E+00  0.12500E+00 -0.25000E+00  0.00000E+00  0.00000E+00  0.00000E+00    0.15136E+02  0.20570E+02 -0.35706E+02 -0.57489E+01 -0.66387E+01 -0.84031E+01      982.00
  0.25399E+00  0.58176E+02    0.13750E+00  0.13750E+00 -0.27500E+00  0.00000E+00  0.00000E+00  0.00000E+00    0.15299E+02  0.20713E+02 -0.36012E+02 -0.57169E+01 -0.65746E+01 -0.84999E+01      982.00
  0.27721E+00  0.58672E+02    0.15000E+00  0.15000E+00 -0.30000E+00  0.00000E+00  0.00000E+00  0.00000E+00    0.15496E+02  0.20857E+02 -0.36353E+02 -0.56966E+01 -0.65106E+01 -0.86179E+01      982.00
  0.30044E+00  0.59119E+02    0.16250E+00  0.16250E+00 -0.32500E+00  0.00000E+00  0.00000E+00  0.00000E+00    0.15701E+02  0.20969E+02 -0.36671E+02 -0.56672E+01 -0.64484E+01 -0.87077E+01      982.00
  0.32370E+00  0.59572E+02    0.17500E+00  0.17500E+00 -0.35000E+00  0.00000E+00  0.00000E+00  0.00000E+00    0.15928E+02  0.21064E+02 -0.36992E+02 -0.56411E+01 -0.63936E+01 -0.87951E+01      982.00
  0.34699E+00  0.59977E+02    0.18750E+00  0.18750E+00 -0.37500E+00  0.00000E+00  0.00000E+00  0.00000E+00    0.16135E+02  0.21146E+02 -0.37281E+02 -0.56161E+01 -0.63418E+01 -0.88675E+01      982.00
  0.37030E+00  0.60421E+02    0.20000E+00  0.20000E+00 -0.40000E+00  0.00000E+00  0.00000E+00  0.00000E+00    0.16374E+02  0.21222E+02 -0.37596E+02 -0.55977E+01 -0.62892E+01 -0.89466E+01      982.00
  0.39363E+00  0.60868E+02    0.21250E+00  0.21250E+00 -0.42500E+00  0.00000E+00  0.00000E+00  0.00000E+00    0.16630E+02  0.21284E+02 -0.37914E+02 -0.55833E+01 -0.62354E+01 -0.90209E+01      982.00
  0.41699E+00  0.61299E+02    0.22500E+00  0.22500E+00 -0.45000E+00  0.00000E+00  0.00000E+00  0.00000E+00    0.16903E+02  0.21321E+02 -0.38224E+02 -0.55720E+01 -0.61836E+01 -0.90851E+01      982.00
  0.44038E+00  0.61717E+02    0.23750E+00  0.23750E+00 -0.47500E+00  0.00000E+00  0.00000E+00  0.00000E+00    0.17185E+02  0.21342E+02 -0.38527E+02 -0.55633E+01 -0.61318E+01 -0.91399E+01      982.00
  0.46379E+00  0.62122E+02    0.25000E+00  0.25000E+00 -0.50000E+00  0.00000E+00  0.00000E+00  0.00000E+00    0.17475E+02  0.21348E+02 -0.38823E+02 -0.55568E+01 -0.60795E+01 -0.91851E+01      982.00
  0.48722E+00  0.62509E+02    0.26250E+00  0.26250E+00 -0.52500E+00  0.00000E+00  0.00000E+00  0.00000E+00    0.17772E+02  0.21337E+02 -0.39109E+02 -0.55526E+01 -0.60269E+01 -0.92203E+01      982.00
  0.51068E+00  0.62880E+02    0.27500E+00  0.27500E+00 -0.55000E+00  0.00000E+00  0.00000E+00  0.00000E+00    0.18073E+02  0.21312E+02 -0.39385E+02 -0.55500E+01 -0.59735E+01 -0.92455E+01      982.00
  0.53417E+00  0.63233E+02    0.28750E+00  0.28750E+00 -0.57500E+00  0.00000E+00  0.00000E+00  0.00000E+00    0.18378E+02  0.21273E+02 -0.39651E+02 -0.55488E+01 -0.59190E+01 -0.92606E+01      982.00
  0.55769E+00  0.63568E+02    0.30000E+00  0.30000E+00 -0.60000E+00  0.00000E+00  0.00000E+00  0.00000E+00    0.18683E+02  0.21222E+02 -0.39905E+02 -0.55487E+01 -0.58633E+01 -0.92659E+01      982.00
  0.58123E+00  0.63885E+02    0.31250E+00  0.31250E+00 -0.62500E+00  0.00000E+00  0.00000E+00  0.00000E+00    0.18988E+02  0.21161E+02 -0.40149E+02 -0.55493E+01 -0.58066E+01 -0.92618E+01      982.00
  0.60479E+00  0.64185E+02    0.32500E+00  0.32500E+00 -0.65000E+00  0.00000E+00  0.00000E+00  0.00000E+00    0.19292E+02  0.21090E+02 -0.40382E+02 -0.55505E+01 -0.57489E+01 -0.92487E+01      982.00
  0.62839E+00  0.64454E+02    0.33750E+00  0.33750E+00 -0.67500E+00  0.00000E+00  0.00000E+00  0.00000E+00    0.19592E+02  0.21003E+02 -0.40595E+02 -0.55475E+01 -0.56936E+01 -0.92251E+01      982.00
  0.65201E+00  0.64721E+02    0.35000E+00  0.35000E+00 -0.70000E+00  0.00000E+00  0.00000E+00  0.00000E+00    0.19890E+02  0.20917E+02 -0.40807E+02 -0.55495E+01 -0.56341E+01 -0.91960E+01      982.00
  0.67565E+00  0.64971E+02    0.36250E+00  0.36250E+00 -0.72500E+00  0.00000E+00  0.00000E+00  0.00000E+00    0.20182E+02  0.20825E+02 -0.41007E+02 -0.55519E+01 -0.55734E+01 -0.91595E+01      982.00
  0.69932E+00  0.65196E+02    0.37500E+00  0.37500E+00 -0.75000E+00  0.00000E+00  0.00000E+00  0.00000E+00    0.20483E+02  0.20709E+02 -0.41193E+02 -0.55543E+01 -0.55152E+01 -0.91067E+01      982.00
  0.72301E+00  0.65416E+02    0.38750E+00  0.38750E+00 -0.77500E+00  0.00000E+00  0.00000E+00  0.00000E+00    0.20765E+02  0.20607E+02 -0.41373E+02 -0.55562E+01 -0.54532E+01 -0.90566E+01      982.00
  0.74673E+00  0.65622E+02    0.40000E+00  0.40000E+00 -0.80000E+00  0.00000E+00  0.00000E+00  0.00000E+00    0.21040E+02  0.20503E+02 -0.41543E+02 -0.55586E+01 -0.53902E+01 -0.90010E+01      982.00
  0.77047E+00  0.65814E+02    0.41250E+00  0.41250E+00 -0.82500E+00  0.00000E+00  0.00000E+00  0.00000E+00    0.21309E+02  0.20395E+02 -0.41704E+02 -0.55611E+01 -0.53268E+01 -0.89399E+01      982.00
  0.79423E+00  0.65994E+02    0.42500E+00  0.42500E+00 -0.85000E+00  0.00000E+00  0.00000E+00  0.00000E+00    0.21571E+02  0.20284E+02 -0.41855E+02 -0.55635E+01 -0.52634E+01 -0.88740E+01      982.00
  0.81801E+00  0.66154E+02    0.43750E+00  0.43750E+00 -0.87500E+00  0.00000E+00  0.00000E+00  0.00000E+00    0.21855E+02  0.20145E+02 -0.41999E+02 -0.55652E+01 -0.51943E+01 -0.87838E+01      982.00
  0.84182E+00  0.66310E+02    0.45000E+00  0.45000E+00 -0.90000E+00  0.00000E+00  0.00000E+00  0.00000E+00    0.22103E+02  0.20031E+02 -0.42134E+02 -0.55672E+01 -0.51307E+01 -0.87091E+01      982.00
  0.86565E+00  0.66456E+02    0.46250E+00  0.46250E+00 -0.92500E+00  0.00000E+00  0.00000E+00  0.00000E+00    0.22344E+02  0.19917E+02 -0.42260E+02 -0.55697E+01 -0.50672E+01 -0.86311E+01      982.00
  0.88950E+00  0.66592E+02    0.47500E+00  0.47500E+00 -0.95000E+00  0.00000E+00  0.00000E+00  0.00000E+00    0.22578E+02  0.19802E+02 -0.42380E+02 -0.55723E+01 -0.50040E+01 -0.85497E+01      982.00
  0.91336E+00  0.66669E+02    0.48750E+00  0.48750E+00 -0.97500E+00  0.00000E+00  0.00000E+00  0.00000E+00    0.22741E+02  0.19723E+02 -0.42463E+02 -0.55527E+01 -0.49199E+01 -0.84820E+01      982.00
  0.93725E+00  0.66728E+02    0.50000E+00  0.50000E+00 -0.10000E+01  0.00000E+00  0.00000E+00  0.00000E+00    0.22926E+02  0.19611E+02 -0.42537E+02 -0.55320E+01 -0.48378E+01 -0.83894E+01      982.00
