          Evm          Svm            E11          E22          E33          E23          E13          E12         SDEV11       SDEV22       SDEV33       SDEV23       SDEV13       SDEV12      TEMP
  0.00000E+00  0.60900E+02    0.00000E+00  0.00000E+00  0.00000E+00  0.00000E+00  0.00000E+00  0.00000E+00    0.16548E+02  0.21873E+02 -0.38421E+02 -0.60062E+01  0.34053E+01  0.86249E+01      982.00
  0.23658E-01  0.61207E+02    0.12500E-01  0.12500E-01 -0.25000E-01  0.00000E+00  0.00000E+00  0.00000E+00    0.17408E+02  0.21119E+02 -0.38527E+02 -0.58304E+01  0.38134E+01  0.91402E+01      982.00
  0.47263E-01  0.61472E+02    0.25000E-01  0.25000E-01 -0.50000E-01  0.00000E+00  0.00000E+00  0.00000E+00    0.18170E+02  0.20423E+02 -0.38593E+02 -0.56563E+01  0.41694E+01  0.95877E+01      982.00
  0.70805E-01  0.61658E+02    0.37500E-01  0.37500E-01 -0.75000E-01  0.00000E+00  0.00000E+00  0.00000E+00    0.18775E+02  0.19841E+02 -0.38615E+02 -0.54685E+01  0.44171E+01  0.99585E+01      982.00
  0.94291E-01  0.61801E+02    0.50000E-01  0.50000E-01 -0.10000E+00  0.00000E+00  0.00000E+00  0.00000E+00    0.19227E+02  0.19400E+02 -0.38627E+02 -0.52589E+01  0.45299E+01  0.10289E+02      982.00
  0.11773E+00  0.61929E+02    0.62500E-01  0.62500E-01 -0.12500E+00  0.00000E+00  0.00000E+00  0.00000E+00    0.19551E+02  0.19092E+02 -0.38643E+02 -0.50354E+01  0.45197E+01  0.10612E+02      982.00
  0.14113E+00  0.62059E+02    0.75000E-01  0.75000E-01 -0.15000E+00  0.00000E+00  0.00000E+00  0.00000E+00    0.19795E+02  0.18869E+02 -0.38664E+02 -0.47922E+01  0.44244E+01  0.10947E+02      982.00
  0.16449E+00  0.62189E+02    0.87500E-01  0.87500E-01 -0.17500E+00  0.00000E+00  0.00000E+00  0.00000E+00    0.19973E+02  0.18711E+02 -0.38684E+02 -0.45342E+01  0.42623E+01  0.11300E+02      982.00
  0.18782E+00  0.62336E+02    0.10000E+00  0.10000E+00 -0.20000E+00  0.00000E+00  0.00000E+00  0.00000E+00    0.20117E+02  0.18596E+02 -0.38713E+02 -0.42616E+01  0.40561E+01  0.11663E+02      982.00
  0.21111E+00  0.62500E+02    0.11250E+00  0.11250E+00 -0.22500E+00  0.00000E+00  0.00000E+00  0.00000E+00    0.20243E+02  0.18506E+02 -0.38749E+02 -0.39725E+01  0.38177E+01  0.12034E+02      982.00
  0.23436E+00  0.62672E+02    0.12500E+00  0.12500E+00 -0.25000E+00  0.00000E+00  0.00000E+00  0.00000E+00    0.20349E+02  0.18438E+02 -0.38787E+02 -0.36802E+01  0.35569E+01  0.12403E+02      982.00
  0.25757E+00  0.62856E+02    0.13750E+00  0.13750E+00 -0.27500E+00  0.00000E+00  0.00000E+00  0.00000E+00    0.20449E+02  0.18381E+02 -0.38830E+02 -0.33815E+01  0.32835E+01  0.12761E+02      982.00
  0.28073E+00  0.63056E+02    0.15000E+00  0.15000E+00 -0.30000E+00  0.00000E+00  0.00000E+00  0.00000E+00    0.20553E+02  0.18328E+02 -0.38881E+02 -0.30758E+01  0.30011E+01  0.13108E+02      982.00
  0.30386E+00  0.63261E+02    0.16250E+00  0.16250E+00 -0.32500E+00  0.00000E+00  0.00000E+00  0.00000E+00    0.20645E+02  0.18288E+02 -0.38933E+02 -0.27860E+01  0.27252E+01  0.13437E+02      982.00
  0.32693E+00  0.63469E+02    0.17500E+00  0.17500E+00 -0.35000E+00  0.00000E+00  0.00000E+00  0.00000E+00    0.20731E+02  0.18256E+02 -0.38987E+02 -0.25129E+01  0.24614E+01  0.13742E+02      982.00
  0.34997E+00  0.63678E+02    0.18750E+00  0.18750E+00 -0.37500E+00  0.00000E+00  0.00000E+00  0.00000E+00    0.20810E+02  0.18232E+02 -0.39043E+02 -0.22602E+01  0.22151E+01  0.14025E+02      982.00
  0.37296E+00  0.63894E+02    0.20000E+00  0.20000E+00 -0.40000E+00  0.00000E+00  0.00000E+00  0.00000E+00    0.20879E+02  0.18223E+02 -0.39102E+02 -0.20448E+01  0.19988E+01  0.14288E+02      982.00
  0.39591E+00  0.64109E+02    0.21250E+00  0.21250E+00 -0.42500E+00  0.00000E+00  0.00000E+00  0.00000E+00    0.20940E+02  0.18222E+02 -0.39163E+02 -0.18529E+01  0.18036E+01  0.14531E+02      982.00
  0.41882E+00  0.64324E+02    0.22500E+00  0.22500E+00 -0.45000E+00  0.00000E+00  0.00000E+00  0.00000E+00    0.20990E+02  0.18231E+02 -0.39221E+02 -0.17058E+01  0.16479E+01  0.14763E+02      982.00
  0.44168E+00  0.64530E+02    0.23750E+00  0.23750E+00 -0.47500E+00  0.00000E+00  0.00000E+00  0.00000E+00    0.21032E+02  0.18244E+02 -0.39277E+02 -0.15769E+01  0.15077E+01  0.14979E+02      982.00
  0.46451E+00  0.64731E+02    0.25000E+00  0.25000E+00 -0.50000E+00  0.00000E+00  0.00000E+00  0.00000E+00    0.21066E+02  0.18265E+02 -0.39331E+02 -0.14947E+01  0.14114E+01  0.15176E+02      982.00
  0.48729E+00  0.64938E+02    0.26250E+00  0.26250E+00 -0.52500E+00  0.00000E+00  0.00000E+00  0.00000E+00    0.21098E+02  0.18288E+02 -0.39386E+02 -0.14171E+01  0.13171E+01  0.15378E+02      982.00
  0.51004E+00  0.65121E+02    0.27500E+00  0.27500E+00 -0.55000E+00  0.00000E+00  0.00000E+00  0.00000E+00    0.21121E+02  0.18308E+02 -0.39429E+02 -0.13719E+01  0.12548E+01  0.15561E+02      982.00
  0.53274E+00  0.65300E+02    0.28750E+00  0.28750E+00 -0.57500E+00  0.00000E+00  0.00000E+00  0.00000E+00    0.21146E+02  0.18326E+02 -0.39472E+02 -0.13418E+01  0.12079E+01  0.15735E+02      982.00
  0.55541E+00  0.65476E+02    0.30000E+00  0.30000E+00 -0.60000E+00  0.00000E+00  0.00000E+00  0.00000E+00    0.21170E+02  0.18344E+02 -0.39514E+02 -0.13246E+01  0.11736E+01  0.15902E+02      982.00
  0.57804E+00  0.65632E+02    0.31250E+00  0.31250E+00 -0.62500E+00  0.00000E+00  0.00000E+00  0.00000E+00    0.21186E+02  0.18362E+02 -0.39547E+02 -0.13134E+01  0.11430E+01  0.16057E+02      982.00
  0.60064E+00  0.65782E+02    0.32500E+00  0.32500E+00 -0.65000E+00  0.00000E+00  0.00000E+00  0.00000E+00    0.21205E+02  0.18374E+02 -0.39579E+02 -0.13149E+01  0.11262E+01  0.16204E+02      982.00
  0.62320E+00  0.65923E+02    0.33750E+00  0.33750E+00 -0.67500E+00  0.00000E+00  0.00000E+00  0.00000E+00    0.21225E+02  0.18382E+02 -0.39606E+02 -0.13232E+01  0.11176E+01  0.16343E+02      982.00
  0.64573E+00  0.66062E+02    0.35000E+00  0.35000E+00 -0.70000E+00  0.00000E+00  0.00000E+00  0.00000E+00    0.21246E+02  0.18388E+02 -0.39634E+02 -0.13366E+01  0.11148E+01  0.16477E+02      982.00
  0.66823E+00  0.66186E+02    0.36250E+00  0.36250E+00 -0.72500E+00  0.00000E+00  0.00000E+00  0.00000E+00    0.21266E+02  0.18391E+02 -0.39657E+02 -0.13537E+01  0.11159E+01  0.16601E+02      982.00
  0.69070E+00  0.66329E+02    0.37500E+00  0.37500E+00 -0.75000E+00  0.00000E+00  0.00000E+00  0.00000E+00    0.21285E+02  0.18389E+02 -0.39674E+02 -0.13795E+01  0.11200E+01  0.16755E+02      982.00
  0.71313E+00  0.66409E+02    0.38750E+00  0.38750E+00 -0.77500E+00  0.00000E+00  0.00000E+00  0.00000E+00    0.21303E+02  0.18387E+02 -0.39690E+02 -0.13965E+01  0.11277E+01  0.16828E+02      982.00
  0.73554E+00  0.66535E+02    0.40000E+00  0.40000E+00 -0.80000E+00  0.00000E+00  0.00000E+00  0.00000E+00    0.21325E+02  0.18380E+02 -0.39705E+02 -0.14281E+01  0.11391E+01  0.16964E+02      982.00
  0.75792E+00  0.66630E+02    0.41250E+00  0.41250E+00 -0.82500E+00  0.00000E+00  0.00000E+00  0.00000E+00    0.21344E+02  0.18374E+02 -0.39718E+02 -0.14550E+01  0.11511E+01  0.17061E+02      982.00
  0.78027E+00  0.66714E+02    0.42500E+00  0.42500E+00 -0.85000E+00  0.00000E+00  0.00000E+00  0.00000E+00    0.21363E+02  0.18364E+02 -0.39727E+02 -0.14816E+01  0.11638E+01  0.17149E+02      982.00
  0.80260E+00  0.66789E+02    0.43750E+00  0.43750E+00 -0.87500E+00  0.00000E+00  0.00000E+00  0.00000E+00    0.21381E+02  0.18352E+02 -0.39733E+02 -0.15078E+01  0.11772E+01  0.17233E+02      982.00
  0.82491E+00  0.66848E+02    0.45000E+00  0.45000E+00 -0.90000E+00  0.00000E+00  0.00000E+00  0.00000E+00    0.21399E+02  0.18345E+02 -0.39744E+02 -0.15224E+01  0.11855E+01  0.17286E+02      982.00
  0.84721E+00  0.66932E+02    0.46250E+00  0.46250E+00 -0.92500E+00  0.00000E+00  0.00000E+00  0.00000E+00    0.21420E+02  0.18327E+02 -0.39747E+02 -0.15571E+01  0.12035E+01  0.17383E+02      982.00
  0.86948E+00  0.66983E+02    0.47500E+00  0.47500E+00 -0.95000E+00  0.00000E+00  0.00000E+00  0.00000E+00    0.21436E+02  0.18319E+02 -0.39755E+02 -0.15725E+01  0.12119E+01  0.17432E+02      982.00
  0.89173E+00  0.67045E+02    0.48750E+00  0.48750E+00 -0.97500E+00  0.00000E+00  0.00000E+00  0.00000E+00    0.21455E+02  0.18305E+02 -0.39761E+02 -0.15954E+01  0.12240E+01  0.17497E+02      982.00
  0.91397E+00  0.67100E+02    0.50000E+00  0.50000E+00 -0.10000E+01  0.00000E+00  0.00000E+00  0.00000E+00    0.21474E+02  0.18290E+02 -0.39764E+02 -0.16187E+01  0.12368E+01  0.17557E+02      982.00
