          Evm          Svm            E11          E22          E33          E23          E13          E12         SDEV11       SDEV22       SDEV33       SDEV23       SDEV13       SDEV12      TEMP
  0.00000E+00  0.49560E+02    0.00000E+00  0.00000E+00  0.00000E+00  0.00000E+00  0.00000E+00  0.00000E+00    0.10696E+02  0.20260E+02 -0.30955E+02 -0.54787E+01 -0.23523E+01 -0.64522E+01      982.00
  0.23423E-01  0.50204E+02    0.12500E-01  0.12500E-01 -0.25000E-01  0.00000E+00  0.00000E+00  0.00000E+00    0.11171E+02  0.19980E+02 -0.31152E+02 -0.58679E+01 -0.28813E+01 -0.70856E+01      982.00
  0.46691E-01  0.50824E+02    0.25000E-01  0.25000E-01 -0.50000E-01  0.00000E+00  0.00000E+00  0.00000E+00    0.11580E+02  0.19797E+02 -0.31377E+02 -0.61470E+01 -0.32531E+01 -0.75738E+01      982.00
  0.69843E-01  0.51428E+02    0.37500E-01  0.37500E-01 -0.75000E-01  0.00000E+00  0.00000E+00  0.00000E+00    0.11939E+02  0.19687E+02 -0.31626E+02 -0.63551E+01 -0.35321E+01 -0.79738E+01      982.00
  0.92904E-01  0.52013E+02    0.50000E-01  0.50000E-01 -0.10000E+00  0.00000E+00  0.00000E+00  0.00000E+00    0.12253E+02  0.19639E+02 -0.31891E+02 -0.65059E+01 -0.37417E+01 -0.83076E+01      982.00
  0.11590E+00  0.52581E+02    0.62500E-01  0.62500E-01 -0.12500E+00  0.00000E+00  0.00000E+00  0.00000E+00    0.12527E+02  0.19644E+02 -0.32171E+02 -0.66093E+01 -0.38977E+01 -0.85920E+01      982.00
  0.13884E+00  0.53135E+02    0.75000E-01  0.75000E-01 -0.15000E+00  0.00000E+00  0.00000E+00  0.00000E+00    0.12772E+02  0.19691E+02 -0.32463E+02 -0.66732E+01 -0.40148E+01 -0.88388E+01      982.00
  0.16175E+00  0.53673E+02    0.87500E-01  0.87500E-01 -0.17500E+00  0.00000E+00  0.00000E+00  0.00000E+00    0.12985E+02  0.19779E+02 -0.32763E+02 -0.67037E+01 -0.40963E+01 -0.90515E+01      982.00
  0.18464E+00  0.54199E+02    0.10000E+00  0.10000E+00 -0.20000E+00  0.00000E+00  0.00000E+00  0.00000E+00    0.13176E+02  0.19893E+02 -0.33068E+02 -0.67130E+01 -0.41589E+01 -0.92422E+01      982.00
  0.20752E+00  0.54727E+02    0.11250E+00  0.11250E+00 -0.22500E+00  0.00000E+00  0.00000E+00  0.00000E+00    0.13346E+02  0.20037E+02 -0.33383E+02 -0.67033E+01 -0.42005E+01 -0.94223E+01      982.00
  0.23040E+00  0.55267E+02    0.12500E+00  0.12500E+00 -0.25000E+00  0.00000E+00  0.00000E+00  0.00000E+00    0.13506E+02  0.20204E+02 -0.33709E+02 -0.66808E+01 -0.42314E+01 -0.95988E+01      982.00
  0.25327E+00  0.55793E+02    0.13750E+00  0.13750E+00 -0.27500E+00  0.00000E+00  0.00000E+00  0.00000E+00    0.13660E+02  0.20381E+02 -0.34040E+02 -0.66420E+01 -0.42467E+01 -0.97524E+01      982.00
  0.27615E+00  0.56353E+02    0.15000E+00  0.15000E+00 -0.30000E+00  0.00000E+00  0.00000E+00  0.00000E+00    0.13817E+02  0.20573E+02 -0.34390E+02 -0.66009E+01 -0.42653E+01 -0.99176E+01      982.00
  0.29903E+00  0.56886E+02    0.16250E+00  0.16250E+00 -0.32500E+00  0.00000E+00  0.00000E+00  0.00000E+00    0.13974E+02  0.20759E+02 -0.34734E+02 -0.65517E+01 -0.42746E+01 -0.10056E+02      982.00
  0.32193E+00  0.57419E+02    0.17500E+00  0.17500E+00 -0.35000E+00  0.00000E+00  0.00000E+00  0.00000E+00    0.14137E+02  0.20943E+02 -0.35080E+02 -0.65018E+01 -0.42832E+01 -0.10189E+02      982.00
  0.34484E+00  0.57952E+02    0.18750E+00  0.18750E+00 -0.37500E+00  0.00000E+00  0.00000E+00  0.00000E+00    0.14306E+02  0.21123E+02 -0.35429E+02 -0.64524E+01 -0.42922E+01 -0.10315E+02      982.00
  0.36777E+00  0.58482E+02    0.20000E+00  0.20000E+00 -0.40000E+00  0.00000E+00  0.00000E+00  0.00000E+00    0.14483E+02  0.21295E+02 -0.35779E+02 -0.64041E+01 -0.43015E+01 -0.10433E+02      982.00
  0.39071E+00  0.59007E+02    0.21250E+00  0.21250E+00 -0.42500E+00  0.00000E+00  0.00000E+00  0.00000E+00    0.14668E+02  0.21459E+02 -0.36127E+02 -0.63577E+01 -0.43112E+01 -0.10544E+02      982.00
  0.41367E+00  0.59523E+02    0.22500E+00  0.22500E+00 -0.45000E+00  0.00000E+00  0.00000E+00  0.00000E+00    0.14859E+02  0.21614E+02 -0.36473E+02 -0.63135E+01 -0.43206E+01 -0.10646E+02      982.00
  0.43665E+00  0.60029E+02    0.23750E+00  0.23750E+00 -0.47500E+00  0.00000E+00  0.00000E+00  0.00000E+00    0.15058E+02  0.21758E+02 -0.36815E+02 -0.62714E+01 -0.43296E+01 -0.10740E+02      982.00
  0.45965E+00  0.60523E+02    0.25000E+00  0.25000E+00 -0.50000E+00  0.00000E+00  0.00000E+00  0.00000E+00    0.15262E+02  0.21891E+02 -0.37152E+02 -0.62314E+01 -0.43375E+01 -0.10825E+02      982.00
  0.48266E+00  0.60978E+02    0.26250E+00  0.26250E+00 -0.52500E+00  0.00000E+00  0.00000E+00  0.00000E+00    0.15454E+02  0.22013E+02 -0.37466E+02 -0.61976E+01 -0.43359E+01 -0.10894E+02      982.00
  0.50571E+00  0.61445E+02    0.27500E+00  0.27500E+00 -0.55000E+00  0.00000E+00  0.00000E+00  0.00000E+00    0.15665E+02  0.22126E+02 -0.37790E+02 -0.61621E+01 -0.43403E+01 -0.10961E+02      982.00
  0.52877E+00  0.61894E+02    0.28750E+00  0.28750E+00 -0.57500E+00  0.00000E+00  0.00000E+00  0.00000E+00    0.15879E+02  0.22227E+02 -0.38106E+02 -0.61275E+01 -0.43431E+01 -0.11020E+02      982.00
  0.55186E+00  0.62327E+02    0.30000E+00  0.30000E+00 -0.60000E+00  0.00000E+00  0.00000E+00  0.00000E+00    0.16095E+02  0.22318E+02 -0.38413E+02 -0.60939E+01 -0.43437E+01 -0.11070E+02      982.00
  0.57497E+00  0.62738E+02    0.31250E+00  0.31250E+00 -0.62500E+00  0.00000E+00  0.00000E+00  0.00000E+00    0.16312E+02  0.22397E+02 -0.38709E+02 -0.60584E+01 -0.43403E+01 -0.11109E+02      982.00
  0.59811E+00  0.63135E+02    0.32500E+00  0.32500E+00 -0.65000E+00  0.00000E+00  0.00000E+00  0.00000E+00    0.16530E+02  0.22467E+02 -0.38997E+02 -0.60266E+01 -0.43361E+01 -0.11143E+02      982.00
  0.62127E+00  0.63513E+02    0.33750E+00  0.33750E+00 -0.67500E+00  0.00000E+00  0.00000E+00  0.00000E+00    0.16746E+02  0.22528E+02 -0.39274E+02 -0.59954E+01 -0.43294E+01 -0.11169E+02      982.00
  0.64446E+00  0.63872E+02    0.35000E+00  0.35000E+00 -0.70000E+00  0.00000E+00  0.00000E+00  0.00000E+00    0.16961E+02  0.22579E+02 -0.39541E+02 -0.59647E+01 -0.43202E+01 -0.11187E+02      982.00
  0.66767E+00  0.64206E+02    0.36250E+00  0.36250E+00 -0.72500E+00  0.00000E+00  0.00000E+00  0.00000E+00    0.17179E+02  0.22612E+02 -0.39791E+02 -0.59356E+01 -0.43139E+01 -0.11199E+02      982.00
  0.69091E+00  0.64529E+02    0.37500E+00  0.37500E+00 -0.75000E+00  0.00000E+00  0.00000E+00  0.00000E+00    0.17389E+02  0.22647E+02 -0.40036E+02 -0.59044E+01 -0.42992E+01 -0.11204E+02      982.00
  0.71418E+00  0.64835E+02    0.38750E+00  0.38750E+00 -0.77500E+00  0.00000E+00  0.00000E+00  0.00000E+00    0.17596E+02  0.22676E+02 -0.40272E+02 -0.58743E+01 -0.42824E+01 -0.11204E+02      982.00
  0.73747E+00  0.65124E+02    0.40000E+00  0.40000E+00 -0.80000E+00  0.00000E+00  0.00000E+00  0.00000E+00    0.17798E+02  0.22698E+02 -0.40496E+02 -0.58447E+01 -0.42635E+01 -0.11199E+02      982.00
  0.76079E+00  0.65397E+02    0.41250E+00  0.41250E+00 -0.82500E+00  0.00000E+00  0.00000E+00  0.00000E+00    0.17997E+02  0.22713E+02 -0.40711E+02 -0.58155E+01 -0.42428E+01 -0.11190E+02      982.00
  0.78413E+00  0.65655E+02    0.42500E+00  0.42500E+00 -0.85000E+00  0.00000E+00  0.00000E+00  0.00000E+00    0.18191E+02  0.22723E+02 -0.40915E+02 -0.57867E+01 -0.42204E+01 -0.11176E+02      982.00
  0.80750E+00  0.65898E+02    0.43750E+00  0.43750E+00 -0.87500E+00  0.00000E+00  0.00000E+00  0.00000E+00    0.18381E+02  0.22728E+02 -0.41110E+02 -0.57585E+01 -0.41966E+01 -0.11159E+02      982.00
  0.83090E+00  0.66127E+02    0.45000E+00  0.45000E+00 -0.90000E+00  0.00000E+00  0.00000E+00  0.00000E+00    0.18566E+02  0.22728E+02 -0.41295E+02 -0.57310E+01 -0.41716E+01 -0.11138E+02      982.00
  0.85432E+00  0.66342E+02    0.46250E+00  0.46250E+00 -0.92500E+00  0.00000E+00  0.00000E+00  0.00000E+00    0.18746E+02  0.22724E+02 -0.41471E+02 -0.57041E+01 -0.41454E+01 -0.11115E+02      982.00
  0.87776E+00  0.66544E+02    0.47500E+00  0.47500E+00 -0.95000E+00  0.00000E+00  0.00000E+00  0.00000E+00    0.18922E+02  0.22716E+02 -0.41638E+02 -0.56780E+01 -0.41183E+01 -0.11090E+02      982.00
  0.90122E+00  0.66657E+02    0.48750E+00  0.48750E+00 -0.97500E+00  0.00000E+00  0.00000E+00  0.00000E+00    0.19054E+02  0.22702E+02 -0.41756E+02 -0.56195E+01 -0.40670E+01 -0.11042E+02      982.00
  0.92471E+00  0.66769E+02    0.50000E+00  0.50000E+00 -0.10000E+01  0.00000E+00  0.00000E+00  0.00000E+00    0.19195E+02  0.22677E+02 -0.41872E+02 -0.55690E+01 -0.40214E+01 -0.10993E+02      982.00
