          Evm          Svm            E11          E22          E33          E23          E13          E12         SDEV11       SDEV22       SDEV33       SDEV23       SDEV13       SDEV12      TEMP
  0.00000E+00  0.57016E+02    0.00000E+00  0.00000E+00  0.00000E+00  0.00000E+00  0.00000E+00  0.00000E+00    0.23617E+02  0.12871E+02 -0.36488E+02  0.68915E+01  0.28463E+01  0.80535E+00      982.00
  0.23998E-01  0.56828E+02    0.12500E-01  0.12500E-01 -0.25000E-01  0.00000E+00  0.00000E+00  0.00000E+00    0.23627E+02  0.12798E+02 -0.36425E+02  0.66513E+01  0.26741E+01  0.80889E+00      982.00
  0.48035E-01  0.56727E+02    0.25000E-01  0.25000E-01 -0.50000E-01  0.00000E+00  0.00000E+00  0.00000E+00    0.23671E+02  0.12734E+02 -0.36406E+02  0.64558E+01  0.25204E+01  0.82345E+00      982.00
  0.72101E-01  0.56735E+02    0.37500E-01  0.37500E-01 -0.75000E-01  0.00000E+00  0.00000E+00  0.00000E+00    0.23758E+02  0.12686E+02 -0.36444E+02  0.63053E+01  0.23922E+01  0.84860E+00      982.00
  0.96189E-01  0.56845E+02    0.50000E-01  0.50000E-01 -0.10000E+00  0.00000E+00  0.00000E+00  0.00000E+00    0.23879E+02  0.12660E+02 -0.36539E+02  0.61906E+01  0.22834E+01  0.88473E+00      982.00
  0.12029E+00  0.57083E+02    0.62500E-01  0.62500E-01 -0.12500E+00  0.00000E+00  0.00000E+00  0.00000E+00    0.24050E+02  0.12654E+02 -0.36704E+02  0.61303E+01  0.22072E+01  0.93459E+00      982.00
  0.14441E+00  0.57413E+02    0.75000E-01  0.75000E-01 -0.15000E+00  0.00000E+00  0.00000E+00  0.00000E+00    0.24251E+02  0.12669E+02 -0.36920E+02  0.61049E+01  0.21466E+01  0.99886E+00      982.00
  0.16852E+00  0.57833E+02    0.87500E-01  0.87500E-01 -0.17500E+00  0.00000E+00  0.00000E+00  0.00000E+00    0.24485E+02  0.12701E+02 -0.37186E+02  0.61212E+01  0.21038E+01  0.10774E+01      982.00
  0.19263E+00  0.58329E+02    0.10000E+00  0.10000E+00 -0.20000E+00  0.00000E+00  0.00000E+00  0.00000E+00    0.24736E+02  0.12764E+02 -0.37499E+02  0.61610E+01  0.20797E+01  0.11557E+01      982.00
  0.21674E+00  0.58865E+02    0.11250E+00  0.11250E+00 -0.22500E+00  0.00000E+00  0.00000E+00  0.00000E+00    0.24993E+02  0.12843E+02 -0.37836E+02  0.62180E+01  0.20624E+01  0.12378E+01      982.00
  0.24085E+00  0.59418E+02    0.12500E+00  0.12500E+00 -0.25000E+00  0.00000E+00  0.00000E+00  0.00000E+00    0.25247E+02  0.12937E+02 -0.38184E+02  0.62837E+01  0.20474E+01  0.13210E+01      982.00
  0.26494E+00  0.59973E+02    0.13750E+00  0.13750E+00 -0.27500E+00  0.00000E+00  0.00000E+00  0.00000E+00    0.25493E+02  0.13041E+02 -0.38535E+02  0.63528E+01  0.20321E+01  0.14030E+01      982.00
  0.28904E+00  0.60515E+02    0.15000E+00  0.15000E+00 -0.30000E+00  0.00000E+00  0.00000E+00  0.00000E+00    0.25726E+02  0.13153E+02 -0.38879E+02  0.64211E+01  0.20149E+01  0.14826E+01      982.00
  0.31313E+00  0.61036E+02    0.16250E+00  0.16250E+00 -0.32500E+00  0.00000E+00  0.00000E+00  0.00000E+00    0.25943E+02  0.13269E+02 -0.39212E+02  0.64860E+01  0.19948E+01  0.15591E+01      982.00
  0.33722E+00  0.61530E+02    0.17500E+00  0.17500E+00 -0.35000E+00  0.00000E+00  0.00000E+00  0.00000E+00    0.26142E+02  0.13387E+02 -0.39529E+02  0.65455E+01  0.19716E+01  0.16322E+01      982.00
  0.36131E+00  0.61978E+02    0.18750E+00  0.18750E+00 -0.37500E+00  0.00000E+00  0.00000E+00  0.00000E+00    0.26317E+02  0.13500E+02 -0.39817E+02  0.66062E+01  0.19428E+01  0.17099E+01      982.00
  0.38541E+00  0.62412E+02    0.20000E+00  0.20000E+00 -0.40000E+00  0.00000E+00  0.00000E+00  0.00000E+00    0.26482E+02  0.13618E+02 -0.40100E+02  0.66514E+01  0.19127E+01  0.17756E+01      982.00
  0.40950E+00  0.62813E+02    0.21250E+00  0.21250E+00 -0.42500E+00  0.00000E+00  0.00000E+00  0.00000E+00    0.26630E+02  0.13734E+02 -0.40363E+02  0.66902E+01  0.18801E+01  0.18385E+01      982.00
  0.43360E+00  0.63184E+02    0.22500E+00  0.22500E+00 -0.45000E+00  0.00000E+00  0.00000E+00  0.00000E+00    0.26762E+02  0.13846E+02 -0.40608E+02  0.67268E+01  0.18464E+01  0.19003E+01      982.00
  0.45770E+00  0.63526E+02    0.23750E+00  0.23750E+00 -0.47500E+00  0.00000E+00  0.00000E+00  0.00000E+00    0.26880E+02  0.13956E+02 -0.40836E+02  0.67532E+01  0.18098E+01  0.19589E+01      982.00
  0.48180E+00  0.63840E+02    0.25000E+00  0.25000E+00 -0.50000E+00  0.00000E+00  0.00000E+00  0.00000E+00    0.26985E+02  0.14063E+02 -0.41048E+02  0.67741E+01  0.17717E+01  0.20158E+01      982.00
  0.50592E+00  0.64130E+02    0.26250E+00  0.26250E+00 -0.52500E+00  0.00000E+00  0.00000E+00  0.00000E+00    0.27079E+02  0.14166E+02 -0.41244E+02  0.67903E+01  0.17324E+01  0.20713E+01      982.00
  0.53003E+00  0.64397E+02    0.27500E+00  0.27500E+00 -0.55000E+00  0.00000E+00  0.00000E+00  0.00000E+00    0.27161E+02  0.14265E+02 -0.41426E+02  0.68024E+01  0.16923E+01  0.21258E+01      982.00
  0.55416E+00  0.64642E+02    0.28750E+00  0.28750E+00 -0.57500E+00  0.00000E+00  0.00000E+00  0.00000E+00    0.27233E+02  0.14361E+02 -0.41594E+02  0.68131E+01  0.16522E+01  0.21802E+01      982.00
  0.57829E+00  0.64868E+02    0.30000E+00  0.30000E+00 -0.60000E+00  0.00000E+00  0.00000E+00  0.00000E+00    0.27297E+02  0.14453E+02 -0.41750E+02  0.68186E+01  0.16112E+01  0.22332E+01      982.00
  0.60242E+00  0.65076E+02    0.31250E+00  0.31250E+00 -0.62500E+00  0.00000E+00  0.00000E+00  0.00000E+00    0.27353E+02  0.14542E+02 -0.41895E+02  0.68216E+01  0.15700E+01  0.22857E+01      982.00
  0.62656E+00  0.65268E+02    0.32500E+00  0.32500E+00 -0.65000E+00  0.00000E+00  0.00000E+00  0.00000E+00    0.27402E+02  0.14627E+02 -0.42029E+02  0.68225E+01  0.15288E+01  0.23379E+01      982.00
  0.65071E+00  0.65446E+02    0.33750E+00  0.33750E+00 -0.67500E+00  0.00000E+00  0.00000E+00  0.00000E+00    0.27444E+02  0.14710E+02 -0.42154E+02  0.68217E+01  0.14878E+01  0.23899E+01      982.00
  0.67486E+00  0.65609E+02    0.35000E+00  0.35000E+00 -0.70000E+00  0.00000E+00  0.00000E+00  0.00000E+00    0.27481E+02  0.14789E+02 -0.42269E+02  0.68196E+01  0.14470E+01  0.24418E+01      982.00
  0.69902E+00  0.65761E+02    0.36250E+00  0.36250E+00 -0.72500E+00  0.00000E+00  0.00000E+00  0.00000E+00    0.27512E+02  0.14865E+02 -0.42377E+02  0.68164E+01  0.14066E+01  0.24937E+01      982.00
  0.72319E+00  0.65901E+02    0.37500E+00  0.37500E+00 -0.75000E+00  0.00000E+00  0.00000E+00  0.00000E+00    0.27538E+02  0.14939E+02 -0.42477E+02  0.68125E+01  0.13667E+01  0.25455E+01      982.00
  0.74736E+00  0.66015E+02    0.38750E+00  0.38750E+00 -0.77500E+00  0.00000E+00  0.00000E+00  0.00000E+00    0.27557E+02  0.15003E+02 -0.42560E+02  0.68047E+01  0.13383E+01  0.25817E+01      982.00
  0.77154E+00  0.66137E+02    0.40000E+00  0.40000E+00 -0.80000E+00  0.00000E+00  0.00000E+00  0.00000E+00    0.27575E+02  0.15072E+02 -0.42647E+02  0.68002E+01  0.13006E+01  0.26345E+01      982.00
  0.79572E+00  0.66251E+02    0.41250E+00  0.41250E+00 -0.82500E+00  0.00000E+00  0.00000E+00  0.00000E+00    0.27590E+02  0.15138E+02 -0.42729E+02  0.67958E+01  0.12625E+01  0.26870E+01      982.00
  0.81990E+00  0.66370E+02    0.42500E+00  0.42500E+00 -0.85000E+00  0.00000E+00  0.00000E+00  0.00000E+00    0.27602E+02  0.15212E+02 -0.42814E+02  0.67896E+01  0.12267E+01  0.27458E+01      982.00
  0.84409E+00  0.66467E+02    0.43750E+00  0.43750E+00 -0.87500E+00  0.00000E+00  0.00000E+00  0.00000E+00    0.27610E+02  0.15274E+02 -0.42884E+02  0.67851E+01  0.11905E+01  0.27991E+01      982.00
  0.86829E+00  0.66487E+02    0.45000E+00  0.45000E+00 -0.90000E+00  0.00000E+00  0.00000E+00  0.00000E+00    0.27595E+02  0.15317E+02 -0.42912E+02  0.67360E+01  0.11472E+01  0.28406E+01      982.00
  0.89249E+00  0.66511E+02    0.46250E+00  0.46250E+00 -0.92500E+00  0.00000E+00  0.00000E+00  0.00000E+00    0.27579E+02  0.15360E+02 -0.42939E+02  0.66991E+01  0.11067E+01  0.28834E+01      982.00
  0.91670E+00  0.66534E+02    0.47500E+00  0.47500E+00 -0.95000E+00  0.00000E+00  0.00000E+00  0.00000E+00    0.27563E+02  0.15402E+02 -0.42965E+02  0.66649E+01  0.10673E+01  0.29264E+01      982.00
  0.94092E+00  0.66564E+02    0.48750E+00  0.48750E+00 -0.97500E+00  0.00000E+00  0.00000E+00  0.00000E+00    0.27546E+02  0.15448E+02 -0.42994E+02  0.66367E+01  0.10324E+01  0.29793E+01      982.00
  0.96514E+00  0.66584E+02    0.50000E+00  0.50000E+00 -0.10000E+01  0.00000E+00  0.00000E+00  0.00000E+00    0.27528E+02  0.15488E+02 -0.43016E+02  0.66065E+01  0.99578E+00  0.30230E+01      982.00
