          Evm          Svm            E11          E22          E33          E23          E13          E12         SDEV11       SDEV22       SDEV33       SDEV23       SDEV13       SDEV12      TEMP
  0.00000E+00  0.54322E+02    0.00000E+00  0.00000E+00  0.00000E+00  0.00000E+00  0.00000E+00  0.00000E+00    0.12712E+02  0.20318E+02 -0.33030E+02 -0.67852E+01 -0.53223E+01 -0.87500E+01      982.00
  0.22802E-01  0.54765E+02    0.12500E-01  0.12500E-01 -0.25000E-01  0.00000E+00  0.00000E+00  0.00000E+00    0.13068E+02  0.20226E+02 -0.33295E+02 -0.68767E+01 -0.54077E+01 -0.88871E+01      982.00
  0.45600E-01  0.55175E+02    0.25000E-01  0.25000E-01 -0.50000E-01  0.00000E+00  0.00000E+00  0.00000E+00    0.13356E+02  0.20204E+02 -0.33561E+02 -0.69213E+01 -0.54455E+01 -0.89870E+01      982.00
  0.68409E-01  0.55574E+02    0.37500E-01  0.37500E-01 -0.75000E-01  0.00000E+00  0.00000E+00  0.00000E+00    0.13610E+02  0.20221E+02 -0.33831E+02 -0.69358E+01 -0.54608E+01 -0.90691E+01      982.00
  0.91238E-01  0.55966E+02    0.50000E-01  0.50000E-01 -0.10000E+00  0.00000E+00  0.00000E+00  0.00000E+00    0.13833E+02  0.20272E+02 -0.34106E+02 -0.69249E+01 -0.54578E+01 -0.91412E+01      982.00
  0.11409E+00  0.56354E+02    0.62500E-01  0.62500E-01 -0.12500E+00  0.00000E+00  0.00000E+00  0.00000E+00    0.14027E+02  0.20354E+02 -0.34381E+02 -0.68975E+01 -0.54407E+01 -0.92125E+01      982.00
  0.13697E+00  0.56776E+02    0.75000E-01  0.75000E-01 -0.15000E+00  0.00000E+00  0.00000E+00  0.00000E+00    0.14213E+02  0.20462E+02 -0.34675E+02 -0.68586E+01 -0.54197E+01 -0.93045E+01      982.00
  0.15987E+00  0.57235E+02    0.87500E-01  0.87500E-01 -0.17500E+00  0.00000E+00  0.00000E+00  0.00000E+00    0.14383E+02  0.20613E+02 -0.34995E+02 -0.68102E+01 -0.53892E+01 -0.93977E+01      982.00
  0.18280E+00  0.57671E+02    0.10000E+00  0.10000E+00 -0.20000E+00  0.00000E+00  0.00000E+00  0.00000E+00    0.14531E+02  0.20774E+02 -0.35306E+02 -0.67506E+01 -0.53479E+01 -0.94799E+01      982.00
  0.20576E+00  0.58123E+02    0.11250E+00  0.11250E+00 -0.22500E+00  0.00000E+00  0.00000E+00  0.00000E+00    0.14680E+02  0.20946E+02 -0.35626E+02 -0.66873E+01 -0.53068E+01 -0.95658E+01      982.00
  0.22874E+00  0.58523E+02    0.12500E+00  0.12500E+00 -0.25000E+00  0.00000E+00  0.00000E+00  0.00000E+00    0.14826E+02  0.21092E+02 -0.35917E+02 -0.66232E+01 -0.52666E+01 -0.96285E+01      982.00
  0.25176E+00  0.59062E+02    0.13750E+00  0.13750E+00 -0.27500E+00  0.00000E+00  0.00000E+00  0.00000E+00    0.14994E+02  0.21290E+02 -0.36284E+02 -0.65597E+01 -0.52350E+01 -0.97494E+01      982.00
  0.27479E+00  0.59531E+02    0.15000E+00  0.15000E+00 -0.30000E+00  0.00000E+00  0.00000E+00  0.00000E+00    0.15161E+02  0.21455E+02 -0.36616E+02 -0.64896E+01 -0.51987E+01 -0.98359E+01      982.00
  0.29786E+00  0.60010E+02    0.16250E+00  0.16250E+00 -0.32500E+00  0.00000E+00  0.00000E+00  0.00000E+00    0.15340E+02  0.21613E+02 -0.36953E+02 -0.64252E+01 -0.51676E+01 -0.99219E+01      982.00
  0.32095E+00  0.60490E+02    0.17500E+00  0.17500E+00 -0.35000E+00  0.00000E+00  0.00000E+00  0.00000E+00    0.15532E+02  0.21759E+02 -0.37291E+02 -0.63630E+01 -0.51401E+01 -0.10006E+02      982.00
  0.34407E+00  0.60927E+02    0.18750E+00  0.18750E+00 -0.37500E+00  0.00000E+00  0.00000E+00  0.00000E+00    0.15715E+02  0.21887E+02 -0.37602E+02 -0.63067E+01 -0.51086E+01 -0.10076E+02      982.00
  0.36721E+00  0.61396E+02    0.20000E+00  0.20000E+00 -0.40000E+00  0.00000E+00  0.00000E+00  0.00000E+00    0.15923E+02  0.22012E+02 -0.37934E+02 -0.62539E+01 -0.50833E+01 -0.10150E+02      982.00
  0.39038E+00  0.61830E+02    0.21250E+00  0.21250E+00 -0.42500E+00  0.00000E+00  0.00000E+00  0.00000E+00    0.16120E+02  0.22123E+02 -0.38243E+02 -0.62083E+01 -0.50555E+01 -0.10214E+02      982.00
  0.41358E+00  0.62269E+02    0.22500E+00  0.22500E+00 -0.45000E+00  0.00000E+00  0.00000E+00  0.00000E+00    0.16338E+02  0.22220E+02 -0.38557E+02 -0.61621E+01 -0.50302E+01 -0.10273E+02      982.00
  0.43680E+00  0.62693E+02    0.23750E+00  0.23750E+00 -0.47500E+00  0.00000E+00  0.00000E+00  0.00000E+00    0.16561E+02  0.22302E+02 -0.38863E+02 -0.61187E+01 -0.50045E+01 -0.10327E+02      982.00
  0.46004E+00  0.63103E+02    0.25000E+00  0.25000E+00 -0.50000E+00  0.00000E+00  0.00000E+00  0.00000E+00    0.16790E+02  0.22373E+02 -0.39163E+02 -0.60753E+01 -0.49774E+01 -0.10370E+02      982.00
  0.48332E+00  0.63491E+02    0.26250E+00  0.26250E+00 -0.52500E+00  0.00000E+00  0.00000E+00  0.00000E+00    0.17021E+02  0.22428E+02 -0.39449E+02 -0.60365E+01 -0.49497E+01 -0.10405E+02      982.00
  0.50662E+00  0.63860E+02    0.27500E+00  0.27500E+00 -0.55000E+00  0.00000E+00  0.00000E+00  0.00000E+00    0.17252E+02  0.22471E+02 -0.39722E+02 -0.60025E+01 -0.49216E+01 -0.10436E+02      982.00
  0.52994E+00  0.64213E+02    0.28750E+00  0.28750E+00 -0.57500E+00  0.00000E+00  0.00000E+00  0.00000E+00    0.17484E+02  0.22503E+02 -0.39987E+02 -0.59697E+01 -0.48917E+01 -0.10457E+02      982.00
  0.55329E+00  0.64545E+02    0.30000E+00  0.30000E+00 -0.60000E+00  0.00000E+00  0.00000E+00  0.00000E+00    0.17716E+02  0.22523E+02 -0.40239E+02 -0.59391E+01 -0.48595E+01 -0.10472E+02      982.00
  0.57667E+00  0.64856E+02    0.31250E+00  0.31250E+00 -0.62500E+00  0.00000E+00  0.00000E+00  0.00000E+00    0.17946E+02  0.22531E+02 -0.40477E+02 -0.59099E+01 -0.48270E+01 -0.10481E+02      982.00
  0.60008E+00  0.65156E+02    0.32500E+00  0.32500E+00 -0.65000E+00  0.00000E+00  0.00000E+00  0.00000E+00    0.18176E+02  0.22533E+02 -0.40709E+02 -0.58833E+01 -0.47932E+01 -0.10483E+02      982.00
  0.62351E+00  0.65415E+02    0.33750E+00  0.33750E+00 -0.67500E+00  0.00000E+00  0.00000E+00  0.00000E+00    0.18384E+02  0.22526E+02 -0.40910E+02 -0.58604E+01 -0.47597E+01 -0.10482E+02      982.00
  0.64696E+00  0.65674E+02    0.35000E+00  0.35000E+00 -0.70000E+00  0.00000E+00  0.00000E+00  0.00000E+00    0.18628E+02  0.22491E+02 -0.41119E+02 -0.58335E+01 -0.47224E+01 -0.10467E+02      982.00
  0.67044E+00  0.65915E+02    0.36250E+00  0.36250E+00 -0.72500E+00  0.00000E+00  0.00000E+00  0.00000E+00    0.18846E+02  0.22467E+02 -0.41312E+02 -0.58110E+01 -0.46843E+01 -0.10451E+02      982.00
  0.69394E+00  0.66141E+02    0.37500E+00  0.37500E+00 -0.75000E+00  0.00000E+00  0.00000E+00  0.00000E+00    0.19059E+02  0.22436E+02 -0.41495E+02 -0.57899E+01 -0.46449E+01 -0.10435E+02      982.00
  0.71747E+00  0.66351E+02    0.38750E+00  0.38750E+00 -0.77500E+00  0.00000E+00  0.00000E+00  0.00000E+00    0.19267E+02  0.22400E+02 -0.41667E+02 -0.57701E+01 -0.46038E+01 -0.10414E+02      982.00
  0.74102E+00  0.66544E+02    0.40000E+00  0.40000E+00 -0.80000E+00  0.00000E+00  0.00000E+00  0.00000E+00    0.19469E+02  0.22358E+02 -0.41827E+02 -0.57516E+01 -0.45624E+01 -0.10389E+02      982.00
  0.76459E+00  0.66728E+02    0.41250E+00  0.41250E+00 -0.82500E+00  0.00000E+00  0.00000E+00  0.00000E+00    0.19669E+02  0.22312E+02 -0.41981E+02 -0.57342E+01 -0.45203E+01 -0.10361E+02      982.00
  0.78818E+00  0.66901E+02    0.42500E+00  0.42500E+00 -0.85000E+00  0.00000E+00  0.00000E+00  0.00000E+00    0.19864E+02  0.22263E+02 -0.42127E+02 -0.57187E+01 -0.44778E+01 -0.10331E+02      982.00
  0.81179E+00  0.67054E+02    0.43750E+00  0.43750E+00 -0.87500E+00  0.00000E+00  0.00000E+00  0.00000E+00    0.20053E+02  0.22206E+02 -0.42259E+02 -0.57035E+01 -0.44355E+01 -0.10298E+02      982.00
  0.83543E+00  0.67205E+02    0.45000E+00  0.45000E+00 -0.90000E+00  0.00000E+00  0.00000E+00  0.00000E+00    0.20239E+02  0.22149E+02 -0.42389E+02 -0.56899E+01 -0.43914E+01 -0.10263E+02      982.00
  0.85908E+00  0.67342E+02    0.46250E+00  0.46250E+00 -0.92500E+00  0.00000E+00  0.00000E+00  0.00000E+00    0.20421E+02  0.22088E+02 -0.42509E+02 -0.56779E+01 -0.43484E+01 -0.10226E+02      982.00
  0.88275E+00  0.67394E+02    0.47500E+00  0.47500E+00 -0.95000E+00  0.00000E+00  0.00000E+00  0.00000E+00    0.20549E+02  0.22029E+02 -0.42579E+02 -0.56347E+01 -0.42861E+01 -0.10179E+02      982.00
  0.90644E+00  0.67451E+02    0.48750E+00  0.48750E+00 -0.97500E+00  0.00000E+00  0.00000E+00  0.00000E+00    0.20694E+02  0.21958E+02 -0.42652E+02 -0.55992E+01 -0.42255E+01 -0.10126E+02      982.00
  0.93015E+00  0.67498E+02    0.50000E+00  0.50000E+00 -0.10000E+01  0.00000E+00  0.00000E+00  0.00000E+00    0.20834E+02  0.21884E+02 -0.42718E+02 -0.55660E+01 -0.41668E+01 -0.10073E+02      982.00
