          Evm          Svm            E11          E22          E33          E23          E13          E12         SDEV11       SDEV22       SDEV33       SDEV23       SDEV13       SDEV12      TEMP
  0.00000E+00  0.61781E+02    0.00000E+00  0.00000E+00  0.00000E+00  0.00000E+00  0.00000E+00  0.00000E+00    0.17948E+02  0.22328E+02 -0.40275E+02 -0.34613E+01  0.24543E+01  0.57374E+01      982.00
  0.24446E-01  0.62053E+02    0.12500E-01  0.12500E-01 -0.25000E-01  0.00000E+00  0.00000E+00  0.00000E+00    0.19037E+02  0.21390E+02 -0.40426E+02 -0.34258E+01  0.27481E+01  0.60943E+01      982.00
  0.48877E-01  0.62316E+02    0.25000E-01  0.25000E-01 -0.50000E-01  0.00000E+00  0.00000E+00  0.00000E+00    0.19985E+02  0.20574E+02 -0.40559E+02 -0.33730E+01  0.29096E+01  0.63807E+01      982.00
  0.73284E-01  0.62540E+02    0.37500E-01  0.37500E-01 -0.75000E-01  0.00000E+00  0.00000E+00  0.00000E+00    0.20747E+02  0.19916E+02 -0.40663E+02 -0.33027E+01  0.29562E+01  0.66207E+01      982.00
  0.97666E-01  0.62746E+02    0.50000E-01  0.50000E-01 -0.10000E+00  0.00000E+00  0.00000E+00  0.00000E+00    0.21325E+02  0.19431E+02 -0.40756E+02 -0.32243E+01  0.29126E+01  0.68400E+01      982.00
  0.12202E+00  0.62934E+02    0.62500E-01  0.62500E-01 -0.12500E+00  0.00000E+00  0.00000E+00  0.00000E+00    0.21765E+02  0.19072E+02 -0.40838E+02 -0.31396E+01  0.28214E+01  0.70585E+01      982.00
  0.14636E+00  0.63140E+02    0.75000E-01  0.75000E-01 -0.15000E+00  0.00000E+00  0.00000E+00  0.00000E+00    0.22121E+02  0.18808E+02 -0.40929E+02 -0.30516E+01  0.27134E+01  0.72868E+01      982.00
  0.17067E+00  0.63364E+02    0.87500E-01  0.87500E-01 -0.17500E+00  0.00000E+00  0.00000E+00  0.00000E+00    0.22407E+02  0.18623E+02 -0.41030E+02 -0.29649E+01  0.25987E+01  0.75234E+01      982.00
  0.19495E+00  0.63612E+02    0.10000E+00  0.10000E+00 -0.20000E+00  0.00000E+00  0.00000E+00  0.00000E+00    0.22652E+02  0.18493E+02 -0.41144E+02 -0.28800E+01  0.24902E+01  0.77692E+01      982.00
  0.21920E+00  0.63868E+02    0.11250E+00  0.11250E+00 -0.22500E+00  0.00000E+00  0.00000E+00  0.00000E+00    0.22863E+02  0.18398E+02 -0.41262E+02 -0.27980E+01  0.23928E+01  0.80168E+01      982.00
  0.24343E+00  0.64138E+02    0.12500E+00  0.12500E+00 -0.25000E+00  0.00000E+00  0.00000E+00  0.00000E+00    0.23052E+02  0.18335E+02 -0.41387E+02 -0.27199E+01  0.23077E+01  0.82636E+01      982.00
  0.26763E+00  0.64424E+02    0.13750E+00  0.13750E+00 -0.27500E+00  0.00000E+00  0.00000E+00  0.00000E+00    0.23220E+02  0.18299E+02 -0.41520E+02 -0.26488E+01  0.22336E+01  0.85161E+01      982.00
  0.29180E+00  0.64706E+02    0.15000E+00  0.15000E+00 -0.30000E+00  0.00000E+00  0.00000E+00  0.00000E+00    0.23377E+02  0.18271E+02 -0.41648E+02 -0.25794E+01  0.21784E+01  0.87612E+01      982.00
  0.31593E+00  0.64997E+02    0.16250E+00  0.16250E+00 -0.32500E+00  0.00000E+00  0.00000E+00  0.00000E+00    0.23518E+02  0.18265E+02 -0.41783E+02 -0.25180E+01  0.21301E+01  0.90031E+01      982.00
  0.34004E+00  0.65275E+02    0.17500E+00  0.17500E+00 -0.35000E+00  0.00000E+00  0.00000E+00  0.00000E+00    0.23649E+02  0.18258E+02 -0.41908E+02 -0.24583E+01  0.20986E+01  0.92391E+01      982.00
  0.36412E+00  0.65550E+02    0.18750E+00  0.18750E+00 -0.37500E+00  0.00000E+00  0.00000E+00  0.00000E+00    0.23763E+02  0.18270E+02 -0.42033E+02 -0.24070E+01  0.20713E+01  0.94630E+01      982.00
  0.38816E+00  0.65827E+02    0.20000E+00  0.20000E+00 -0.40000E+00  0.00000E+00  0.00000E+00  0.00000E+00    0.23874E+02  0.18283E+02 -0.42157E+02 -0.23570E+01  0.20570E+01  0.96893E+01      982.00
  0.41218E+00  0.66076E+02    0.21250E+00  0.21250E+00 -0.42500E+00  0.00000E+00  0.00000E+00  0.00000E+00    0.23961E+02  0.18307E+02 -0.42268E+02 -0.23166E+01  0.20450E+01  0.98926E+01      982.00
  0.43617E+00  0.66339E+02    0.22500E+00  0.22500E+00 -0.45000E+00  0.00000E+00  0.00000E+00  0.00000E+00    0.24051E+02  0.18331E+02 -0.42382E+02 -0.22773E+01  0.20422E+01  0.10111E+02      982.00
  0.46012E+00  0.66525E+02    0.23750E+00  0.23750E+00 -0.47500E+00  0.00000E+00  0.00000E+00  0.00000E+00    0.24102E+02  0.18360E+02 -0.42463E+02 -0.22502E+01  0.20420E+01  0.10268E+02      982.00
  0.48406E+00  0.66779E+02    0.25000E+00  0.25000E+00 -0.50000E+00  0.00000E+00  0.00000E+00  0.00000E+00    0.24175E+02  0.18395E+02 -0.42570E+02 -0.22217E+01  0.20463E+01  0.10480E+02      982.00
  0.50797E+00  0.66975E+02    0.26250E+00  0.26250E+00 -0.52500E+00  0.00000E+00  0.00000E+00  0.00000E+00    0.24220E+02  0.18434E+02 -0.42654E+02 -0.22055E+01  0.20500E+01  0.10642E+02      982.00
  0.53185E+00  0.67148E+02    0.27500E+00  0.27500E+00 -0.55000E+00  0.00000E+00  0.00000E+00  0.00000E+00    0.24255E+02  0.18469E+02 -0.42724E+02 -0.21953E+01  0.20557E+01  0.10795E+02      982.00
  0.55571E+00  0.67311E+02    0.28750E+00  0.28750E+00 -0.57500E+00  0.00000E+00  0.00000E+00  0.00000E+00    0.24286E+02  0.18503E+02 -0.42790E+02 -0.21905E+01  0.20638E+01  0.10939E+02      982.00
  0.57955E+00  0.67463E+02    0.30000E+00  0.30000E+00 -0.60000E+00  0.00000E+00  0.00000E+00  0.00000E+00    0.24313E+02  0.18535E+02 -0.42848E+02 -0.21908E+01  0.20741E+01  0.11077E+02      982.00
  0.60336E+00  0.67601E+02    0.31250E+00  0.31250E+00 -0.62500E+00  0.00000E+00  0.00000E+00  0.00000E+00    0.24334E+02  0.18564E+02 -0.42898E+02 -0.21963E+01  0.20862E+01  0.11209E+02      982.00
  0.62716E+00  0.67724E+02    0.32500E+00  0.32500E+00 -0.65000E+00  0.00000E+00  0.00000E+00  0.00000E+00    0.24352E+02  0.18587E+02 -0.42939E+02 -0.22066E+01  0.21008E+01  0.11335E+02      982.00
  0.65094E+00  0.67839E+02    0.33750E+00  0.33750E+00 -0.67500E+00  0.00000E+00  0.00000E+00  0.00000E+00    0.24368E+02  0.18606E+02 -0.42974E+02 -0.22208E+01  0.21173E+01  0.11457E+02      982.00
  0.67469E+00  0.67940E+02    0.35000E+00  0.35000E+00 -0.70000E+00  0.00000E+00  0.00000E+00  0.00000E+00    0.24380E+02  0.18620E+02 -0.43000E+02 -0.22392E+01  0.21355E+01  0.11575E+02      982.00
  0.69843E+00  0.68036E+02    0.36250E+00  0.36250E+00 -0.72500E+00  0.00000E+00  0.00000E+00  0.00000E+00    0.24393E+02  0.18630E+02 -0.43023E+02 -0.22610E+01  0.21555E+01  0.11690E+02      982.00
  0.72214E+00  0.68106E+02    0.37500E+00  0.37500E+00 -0.75000E+00  0.00000E+00  0.00000E+00  0.00000E+00    0.24398E+02  0.18630E+02 -0.43028E+02 -0.22863E+01  0.21781E+01  0.11802E+02      982.00
  0.74583E+00  0.68176E+02    0.38750E+00  0.38750E+00 -0.77500E+00  0.00000E+00  0.00000E+00  0.00000E+00    0.24404E+02  0.18627E+02 -0.43031E+02 -0.23146E+01  0.22018E+01  0.11917E+02      982.00
  0.76950E+00  0.68239E+02    0.40000E+00  0.40000E+00 -0.80000E+00  0.00000E+00  0.00000E+00  0.00000E+00    0.24410E+02  0.18620E+02 -0.43030E+02 -0.23448E+01  0.22268E+01  0.12027E+02      982.00
  0.79315E+00  0.68292E+02    0.41250E+00  0.41250E+00 -0.82500E+00  0.00000E+00  0.00000E+00  0.00000E+00    0.24415E+02  0.18606E+02 -0.43020E+02 -0.23775E+01  0.22536E+01  0.12139E+02      982.00
  0.81677E+00  0.68333E+02    0.42500E+00  0.42500E+00 -0.85000E+00  0.00000E+00  0.00000E+00  0.00000E+00    0.24416E+02  0.18585E+02 -0.43001E+02 -0.24114E+01  0.22818E+01  0.12253E+02      982.00
  0.84037E+00  0.68367E+02    0.43750E+00  0.43750E+00 -0.87500E+00  0.00000E+00  0.00000E+00  0.00000E+00    0.24414E+02  0.18550E+02 -0.42964E+02 -0.24561E+01  0.23178E+01  0.12393E+02      982.00
  0.86393E+00  0.68392E+02    0.45000E+00  0.45000E+00 -0.90000E+00  0.00000E+00  0.00000E+00  0.00000E+00    0.24412E+02  0.18516E+02 -0.42928E+02 -0.24927E+01  0.23477E+01  0.12514E+02      982.00
  0.88747E+00  0.68391E+02    0.46250E+00  0.46250E+00 -0.92500E+00  0.00000E+00  0.00000E+00  0.00000E+00    0.24405E+02  0.18477E+02 -0.42882E+02 -0.25177E+01  0.23675E+01  0.12620E+02      982.00
  0.91098E+00  0.68409E+02    0.47500E+00  0.47500E+00 -0.95000E+00  0.00000E+00  0.00000E+00  0.00000E+00    0.24401E+02  0.18427E+02 -0.42829E+02 -0.25604E+01  0.24050E+01  0.12766E+02      982.00
  0.93446E+00  0.68392E+02    0.48750E+00  0.48750E+00 -0.97500E+00  0.00000E+00  0.00000E+00  0.00000E+00    0.24388E+02  0.18376E+02 -0.42765E+02 -0.25836E+01  0.24239E+01  0.12882E+02      982.00
  0.95791E+00  0.68352E+02    0.50000E+00  0.50000E+00 -0.10000E+01  0.00000E+00  0.00000E+00  0.00000E+00    0.24365E+02  0.18309E+02 -0.42674E+02 -0.26158E+01  0.24527E+01  0.13020E+02      982.00
