          Evm          Svm            E11          E22          E33          E23          E13          E12         SDEV11       SDEV22       SDEV33       SDEV23       SDEV13       SDEV12      TEMP
  0.00000E+00  0.55854E+02    0.00000E+00  0.00000E+00  0.00000E+00  0.00000E+00  0.00000E+00  0.00000E+00    0.92520E+01  0.24893E+02 -0.34145E+02  0.14307E+01  0.51278E+01  0.87174E+01      982.00
  0.22925E-01  0.55758E+02    0.12500E-01  0.12500E-01 -0.25000E-01  0.00000E+00  0.00000E+00  0.00000E+00    0.91275E+01  0.24872E+02 -0.33999E+02  0.15655E+01  0.50878E+01  0.88904E+01      982.00
  0.45791E-01  0.55715E+02    0.25000E-01  0.25000E-01 -0.50000E-01  0.00000E+00  0.00000E+00  0.00000E+00    0.90084E+01  0.24879E+02 -0.33887E+02  0.16798E+01  0.50475E+01  0.90662E+01      982.00
  0.68599E-01  0.55722E+02    0.37500E-01  0.37500E-01 -0.75000E-01  0.00000E+00  0.00000E+00  0.00000E+00    0.89011E+01  0.24903E+02 -0.33804E+02  0.17804E+01  0.50109E+01  0.92556E+01      982.00
  0.91349E-01  0.55779E+02    0.50000E-01  0.50000E-01 -0.10000E+00  0.00000E+00  0.00000E+00  0.00000E+00    0.88069E+01  0.24944E+02 -0.33751E+02  0.18640E+01  0.49776E+01  0.94568E+01      982.00
  0.11404E+00  0.55880E+02    0.62500E-01  0.62500E-01 -0.12500E+00  0.00000E+00  0.00000E+00  0.00000E+00    0.87264E+01  0.24998E+02 -0.33725E+02  0.19296E+01  0.49458E+01  0.96671E+01      982.00
  0.13667E+00  0.56014E+02    0.75000E-01  0.75000E-01 -0.15000E+00  0.00000E+00  0.00000E+00  0.00000E+00    0.86594E+01  0.25062E+02 -0.33722E+02  0.19777E+01  0.49128E+01  0.98843E+01      982.00
  0.15925E+00  0.56172E+02    0.87500E-01  0.87500E-01 -0.17500E+00  0.00000E+00  0.00000E+00  0.00000E+00    0.86056E+01  0.25130E+02 -0.33736E+02  0.20122E+01  0.48736E+01  0.10106E+02      982.00
  0.18177E+00  0.56344E+02    0.10000E+00  0.10000E+00 -0.20000E+00  0.00000E+00  0.00000E+00  0.00000E+00    0.85645E+01  0.25197E+02 -0.33762E+02  0.20368E+01  0.48234E+01  0.10332E+02      982.00
  0.20424E+00  0.56519E+02    0.11250E+00  0.11250E+00 -0.22500E+00  0.00000E+00  0.00000E+00  0.00000E+00    0.85362E+01  0.25257E+02 -0.33794E+02  0.20567E+01  0.47563E+01  0.10562E+02      982.00
  0.22666E+00  0.56698E+02    0.12500E+00  0.12500E+00 -0.25000E+00  0.00000E+00  0.00000E+00  0.00000E+00    0.85202E+01  0.25311E+02 -0.33831E+02  0.20714E+01  0.46718E+01  0.10796E+02      982.00
  0.24904E+00  0.56861E+02    0.13750E+00  0.13750E+00 -0.27500E+00  0.00000E+00  0.00000E+00  0.00000E+00    0.85203E+01  0.25342E+02 -0.33862E+02  0.20984E+01  0.45538E+01  0.11038E+02      982.00
  0.27137E+00  0.57011E+02    0.15000E+00  0.15000E+00 -0.30000E+00  0.00000E+00  0.00000E+00  0.00000E+00    0.85375E+01  0.25353E+02 -0.33890E+02  0.21331E+01  0.44072E+01  0.11285E+02      982.00
  0.29366E+00  0.57145E+02    0.16250E+00  0.16250E+00 -0.32500E+00  0.00000E+00  0.00000E+00  0.00000E+00    0.85767E+01  0.25335E+02 -0.33912E+02  0.21831E+01  0.42204E+01  0.11542E+02      982.00
  0.31591E+00  0.57269E+02    0.17500E+00  0.17500E+00 -0.35000E+00  0.00000E+00  0.00000E+00  0.00000E+00    0.86441E+01  0.25288E+02 -0.33932E+02  0.22521E+01  0.39831E+01  0.11812E+02      982.00
  0.33813E+00  0.57379E+02    0.18750E+00  0.18750E+00 -0.37500E+00  0.00000E+00  0.00000E+00  0.00000E+00    0.87435E+01  0.25205E+02 -0.33949E+02  0.23368E+01  0.37036E+01  0.12089E+02      982.00
  0.36032E+00  0.57480E+02    0.20000E+00  0.20000E+00 -0.40000E+00  0.00000E+00  0.00000E+00  0.00000E+00    0.88822E+01  0.25084E+02 -0.33966E+02  0.24394E+01  0.33748E+01  0.12373E+02      982.00
  0.38248E+00  0.57575E+02    0.21250E+00  0.21250E+00 -0.42500E+00  0.00000E+00  0.00000E+00  0.00000E+00    0.90662E+01  0.24921E+02 -0.33987E+02  0.25584E+01  0.29980E+01  0.12660E+02      982.00
  0.40462E+00  0.57667E+02    0.22500E+00  0.22500E+00 -0.45000E+00  0.00000E+00  0.00000E+00  0.00000E+00    0.93019E+01  0.24711E+02 -0.34013E+02  0.26937E+01  0.25723E+01  0.12945E+02      982.00
  0.42673E+00  0.57756E+02    0.23750E+00  0.23750E+00 -0.47500E+00  0.00000E+00  0.00000E+00  0.00000E+00    0.95881E+01  0.24460E+02 -0.34048E+02  0.28374E+01  0.21151E+01  0.13216E+02      982.00
  0.44884E+00  0.57847E+02    0.25000E+00  0.25000E+00 -0.50000E+00  0.00000E+00  0.00000E+00  0.00000E+00    0.99287E+01  0.24164E+02 -0.34093E+02  0.29913E+01  0.16243E+01  0.13469E+02      982.00
  0.47094E+00  0.57942E+02    0.26250E+00  0.26250E+00 -0.52500E+00  0.00000E+00  0.00000E+00  0.00000E+00    0.10317E+02  0.23834E+02 -0.34151E+02  0.31505E+01  0.11206E+01  0.13693E+02      982.00
  0.49305E+00  0.58044E+02    0.27500E+00  0.27500E+00 -0.55000E+00  0.00000E+00  0.00000E+00  0.00000E+00    0.10752E+02  0.23471E+02 -0.34223E+02  0.33187E+01  0.60332E+00  0.13885E+02      982.00
  0.51516E+00  0.58156E+02    0.28750E+00  0.28750E+00 -0.57500E+00  0.00000E+00  0.00000E+00  0.00000E+00    0.11227E+02  0.23083E+02 -0.34309E+02  0.34963E+01  0.87121E-01  0.14041E+02      982.00
  0.53728E+00  0.58280E+02    0.30000E+00  0.30000E+00 -0.60000E+00  0.00000E+00  0.00000E+00  0.00000E+00    0.11730E+02  0.22679E+02 -0.34410E+02  0.36842E+01 -0.41319E+00  0.14159E+02      982.00
  0.55942E+00  0.58419E+02    0.31250E+00  0.31250E+00 -0.62500E+00  0.00000E+00  0.00000E+00  0.00000E+00    0.12260E+02  0.22263E+02 -0.34523E+02  0.38864E+01 -0.90039E+00  0.14240E+02      982.00
  0.58158E+00  0.58570E+02    0.32500E+00  0.32500E+00 -0.65000E+00  0.00000E+00  0.00000E+00  0.00000E+00    0.12807E+02  0.21841E+02 -0.34648E+02  0.41021E+01 -0.13621E+01  0.14285E+02      982.00
  0.60376E+00  0.58734E+02    0.33750E+00  0.33750E+00 -0.67500E+00  0.00000E+00  0.00000E+00  0.00000E+00    0.13363E+02  0.21419E+02 -0.34781E+02  0.43301E+01 -0.17917E+01  0.14296E+02      982.00
  0.62597E+00  0.58905E+02    0.35000E+00  0.35000E+00 -0.70000E+00  0.00000E+00  0.00000E+00  0.00000E+00    0.13918E+02  0.21004E+02 -0.34922E+02  0.45666E+01 -0.21783E+01  0.14276E+02      982.00
  0.64820E+00  0.59080E+02    0.36250E+00  0.36250E+00 -0.72500E+00  0.00000E+00  0.00000E+00  0.00000E+00    0.14472E+02  0.20594E+02 -0.35066E+02  0.48110E+01 -0.25281E+01  0.14226E+02      982.00
  0.67046E+00  0.59254E+02    0.37500E+00  0.37500E+00 -0.75000E+00  0.00000E+00  0.00000E+00  0.00000E+00    0.15019E+02  0.20191E+02 -0.35211E+02  0.50605E+01 -0.28380E+01  0.14148E+02      982.00
  0.69274E+00  0.59423E+02    0.38750E+00  0.38750E+00 -0.77500E+00  0.00000E+00  0.00000E+00  0.00000E+00    0.15551E+02  0.19803E+02 -0.35355E+02  0.53096E+01 -0.30962E+01  0.14046E+02      982.00
  0.71506E+00  0.59583E+02    0.40000E+00  0.40000E+00 -0.80000E+00  0.00000E+00  0.00000E+00  0.00000E+00    0.16067E+02  0.19427E+02 -0.35494E+02  0.55577E+01 -0.33079E+01  0.13922E+02      982.00
  0.73739E+00  0.59729E+02    0.41250E+00  0.41250E+00 -0.82500E+00  0.00000E+00  0.00000E+00  0.00000E+00    0.16568E+02  0.19060E+02 -0.35628E+02  0.58055E+01 -0.34798E+01  0.13776E+02      982.00
  0.75976E+00  0.59859E+02    0.42500E+00  0.42500E+00 -0.85000E+00  0.00000E+00  0.00000E+00  0.00000E+00    0.17049E+02  0.18706E+02 -0.35755E+02  0.60491E+01 -0.36038E+01  0.13613E+02      982.00
  0.78216E+00  0.59972E+02    0.43750E+00  0.43750E+00 -0.87500E+00  0.00000E+00  0.00000E+00  0.00000E+00    0.17514E+02  0.18358E+02 -0.35872E+02  0.62920E+01 -0.36931E+01  0.13430E+02      982.00
  0.80459E+00  0.60065E+02    0.45000E+00  0.45000E+00 -0.90000E+00  0.00000E+00  0.00000E+00  0.00000E+00    0.17961E+02  0.18017E+02 -0.35978E+02  0.65330E+01 -0.37458E+01  0.13231E+02      982.00
  0.82706E+00  0.60137E+02    0.46250E+00  0.46250E+00 -0.92500E+00  0.00000E+00  0.00000E+00  0.00000E+00    0.18393E+02  0.17680E+02 -0.36073E+02  0.67724E+01 -0.37648E+01  0.13015E+02      982.00
  0.84955E+00  0.60187E+02    0.47500E+00  0.47500E+00 -0.95000E+00  0.00000E+00  0.00000E+00  0.00000E+00    0.18808E+02  0.17345E+02 -0.36153E+02  0.70107E+01 -0.37531E+01  0.12783E+02      982.00
  0.87207E+00  0.60207E+02    0.48750E+00  0.48750E+00 -0.97500E+00  0.00000E+00  0.00000E+00  0.00000E+00    0.19209E+02  0.17009E+02 -0.36218E+02  0.72420E+01 -0.37110E+01  0.12532E+02      982.00
  0.89463E+00  0.60200E+02    0.50000E+00  0.50000E+00 -0.10000E+01  0.00000E+00  0.00000E+00  0.00000E+00    0.19599E+02  0.16667E+02 -0.36266E+02  0.74691E+01 -0.36475E+01  0.12261E+02      982.00
