          Evm          Svm            E11          E22          E33          E23          E13          E12         SDEV11       SDEV22       SDEV33       SDEV23       SDEV13       SDEV12      TEMP
  0.00000E+00  0.61737E+02    0.00000E+00  0.00000E+00  0.00000E+00  0.00000E+00  0.00000E+00  0.00000E+00    0.17744E+02  0.22512E+02 -0.40256E+02  0.45690E+01 -0.18727E+01  0.50016E+01      982.00
  0.24452E-01  0.62066E+02    0.12500E-01  0.12500E-01 -0.25000E-01  0.00000E+00  0.00000E+00  0.00000E+00    0.18841E+02  0.21624E+02 -0.40465E+02  0.45317E+01 -0.21433E+01  0.53770E+01      982.00
  0.48901E-01  0.62430E+02    0.25000E-01  0.25000E-01 -0.50000E-01  0.00000E+00  0.00000E+00  0.00000E+00    0.19963E+02  0.20710E+02 -0.40673E+02  0.44586E+01 -0.23713E+01  0.57272E+01      982.00
  0.73332E-01  0.62750E+02    0.37500E-01  0.37500E-01 -0.75000E-01  0.00000E+00  0.00000E+00  0.00000E+00    0.20924E+02  0.19916E+02 -0.40840E+02  0.43602E+01 -0.24805E+01  0.60136E+01      982.00
  0.97739E-01  0.63012E+02    0.50000E-01  0.50000E-01 -0.10000E+00  0.00000E+00  0.00000E+00  0.00000E+00    0.21658E+02  0.19311E+02 -0.40969E+02  0.42494E+01 -0.24662E+01  0.62533E+01      982.00
  0.12212E+00  0.63240E+02    0.62500E-01  0.62500E-01 -0.12500E+00  0.00000E+00  0.00000E+00  0.00000E+00    0.22204E+02  0.18875E+02 -0.41079E+02  0.41340E+01 -0.23723E+01  0.64782E+01      982.00
  0.14648E+00  0.63462E+02    0.75000E-01  0.75000E-01 -0.15000E+00  0.00000E+00  0.00000E+00  0.00000E+00    0.22625E+02  0.18561E+02 -0.41185E+02  0.40174E+01 -0.22430E+01  0.67070E+01      982.00
  0.17082E+00  0.63693E+02    0.87500E-01  0.87500E-01 -0.17500E+00  0.00000E+00  0.00000E+00  0.00000E+00    0.22950E+02  0.18348E+02 -0.41298E+02  0.39055E+01 -0.20976E+01  0.69427E+01      982.00
  0.19513E+00  0.63943E+02    0.10000E+00  0.10000E+00 -0.20000E+00  0.00000E+00  0.00000E+00  0.00000E+00    0.23215E+02  0.18205E+02 -0.41420E+02  0.37983E+01 -0.19557E+01  0.71857E+01      982.00
  0.21942E+00  0.64210E+02    0.11250E+00  0.11250E+00 -0.22500E+00  0.00000E+00  0.00000E+00  0.00000E+00    0.23440E+02  0.18112E+02 -0.41552E+02  0.36962E+01 -0.18262E+01  0.74339E+01      982.00
  0.24369E+00  0.64493E+02    0.12500E+00  0.12500E+00 -0.25000E+00  0.00000E+00  0.00000E+00  0.00000E+00    0.23637E+02  0.18055E+02 -0.41692E+02  0.35987E+01 -0.17132E+01  0.76867E+01      982.00
  0.26793E+00  0.64786E+02    0.13750E+00  0.13750E+00 -0.27500E+00  0.00000E+00  0.00000E+00  0.00000E+00    0.23813E+02  0.18023E+02 -0.41837E+02  0.35041E+01 -0.16181E+01  0.79425E+01      982.00
  0.29215E+00  0.65088E+02    0.15000E+00  0.15000E+00 -0.30000E+00  0.00000E+00  0.00000E+00  0.00000E+00    0.23966E+02  0.18021E+02 -0.41987E+02  0.34135E+01 -0.15357E+01  0.81930E+01      982.00
  0.31634E+00  0.65375E+02    0.16250E+00  0.16250E+00 -0.32500E+00  0.00000E+00  0.00000E+00  0.00000E+00    0.24102E+02  0.18024E+02 -0.42126E+02  0.33216E+01 -0.14780E+01  0.84367E+01      982.00
  0.34050E+00  0.65674E+02    0.17500E+00  0.17500E+00 -0.35000E+00  0.00000E+00  0.00000E+00  0.00000E+00    0.24226E+02  0.18049E+02 -0.42275E+02  0.32303E+01 -0.14302E+01  0.86779E+01      982.00
  0.36464E+00  0.65967E+02    0.18750E+00  0.18750E+00 -0.37500E+00  0.00000E+00  0.00000E+00  0.00000E+00    0.24337E+02  0.18083E+02 -0.42419E+02  0.31368E+01 -0.13978E+01  0.89130E+01      982.00
  0.38876E+00  0.66253E+02    0.20000E+00  0.20000E+00 -0.40000E+00  0.00000E+00  0.00000E+00  0.00000E+00    0.24441E+02  0.18114E+02 -0.42556E+02  0.30349E+01 -0.13869E+01  0.91537E+01      982.00
  0.41284E+00  0.66524E+02    0.21250E+00  0.21250E+00 -0.42500E+00  0.00000E+00  0.00000E+00  0.00000E+00    0.24524E+02  0.18163E+02 -0.42687E+02  0.29343E+01 -0.13809E+01  0.93738E+01      982.00
  0.43691E+00  0.66783E+02    0.22500E+00  0.22500E+00 -0.45000E+00  0.00000E+00  0.00000E+00  0.00000E+00    0.24593E+02  0.18219E+02 -0.42812E+02  0.28313E+01 -0.13843E+01  0.95861E+01      982.00
  0.46095E+00  0.67029E+02    0.23750E+00  0.23750E+00 -0.47500E+00  0.00000E+00  0.00000E+00  0.00000E+00    0.24649E+02  0.18281E+02 -0.42930E+02  0.27261E+01 -0.13953E+01  0.97904E+01      982.00
  0.48496E+00  0.67262E+02    0.25000E+00  0.25000E+00 -0.50000E+00  0.00000E+00  0.00000E+00  0.00000E+00    0.24693E+02  0.18349E+02 -0.43042E+02  0.26199E+01 -0.14119E+01  0.99862E+01      982.00
  0.50896E+00  0.67482E+02    0.26250E+00  0.26250E+00 -0.52500E+00  0.00000E+00  0.00000E+00  0.00000E+00    0.24723E+02  0.18423E+02 -0.43146E+02  0.25138E+01 -0.14328E+01  0.10173E+02      982.00
  0.53294E+00  0.67694E+02    0.27500E+00  0.27500E+00 -0.55000E+00  0.00000E+00  0.00000E+00  0.00000E+00    0.24744E+02  0.18504E+02 -0.43248E+02  0.24172E+01 -0.14466E+01  0.10345E+02      982.00
  0.55689E+00  0.67896E+02    0.28750E+00  0.28750E+00 -0.57500E+00  0.00000E+00  0.00000E+00  0.00000E+00    0.24759E+02  0.18585E+02 -0.43344E+02  0.23145E+01 -0.14700E+01  0.10514E+02      982.00
  0.58083E+00  0.68087E+02    0.30000E+00  0.30000E+00 -0.60000E+00  0.00000E+00  0.00000E+00  0.00000E+00    0.24765E+02  0.18670E+02 -0.43435E+02  0.22146E+01 -0.14926E+01  0.10672E+02      982.00
  0.60476E+00  0.68268E+02    0.31250E+00  0.31250E+00 -0.62500E+00  0.00000E+00  0.00000E+00  0.00000E+00    0.24765E+02  0.18757E+02 -0.43522E+02  0.21184E+01 -0.15136E+01  0.10821E+02      982.00
  0.62866E+00  0.68440E+02    0.32500E+00  0.32500E+00 -0.65000E+00  0.00000E+00  0.00000E+00  0.00000E+00    0.24759E+02  0.18846E+02 -0.43606E+02  0.20262E+01 -0.15323E+01  0.10958E+02      982.00
  0.65256E+00  0.68603E+02    0.33750E+00  0.33750E+00 -0.67500E+00  0.00000E+00  0.00000E+00  0.00000E+00    0.24748E+02  0.18937E+02 -0.43685E+02  0.19423E+01 -0.15465E+01  0.11084E+02      982.00
  0.67644E+00  0.68757E+02    0.35000E+00  0.35000E+00 -0.70000E+00  0.00000E+00  0.00000E+00  0.00000E+00    0.24735E+02  0.19027E+02 -0.43762E+02  0.18587E+01 -0.15599E+01  0.11202E+02      982.00
  0.70030E+00  0.68888E+02    0.36250E+00  0.36250E+00 -0.72500E+00  0.00000E+00  0.00000E+00  0.00000E+00    0.24708E+02  0.19120E+02 -0.43828E+02  0.17757E+01 -0.15765E+01  0.11303E+02      982.00
  0.72416E+00  0.69023E+02    0.37500E+00  0.37500E+00 -0.75000E+00  0.00000E+00  0.00000E+00  0.00000E+00    0.24688E+02  0.19209E+02 -0.43897E+02  0.17002E+01 -0.15832E+01  0.11401E+02      982.00
  0.74801E+00  0.69152E+02    0.38750E+00  0.38750E+00 -0.77500E+00  0.00000E+00  0.00000E+00  0.00000E+00    0.24667E+02  0.19296E+02 -0.43964E+02  0.16287E+01 -0.15871E+01  0.11490E+02      982.00
  0.77185E+00  0.69274E+02    0.40000E+00  0.40000E+00 -0.80000E+00  0.00000E+00  0.00000E+00  0.00000E+00    0.24646E+02  0.19381E+02 -0.44028E+02  0.15607E+01 -0.15883E+01  0.11572E+02      982.00
  0.79568E+00  0.69388E+02    0.41250E+00  0.41250E+00 -0.82500E+00  0.00000E+00  0.00000E+00  0.00000E+00    0.24624E+02  0.19465E+02 -0.44089E+02  0.14956E+01 -0.15869E+01  0.11645E+02      982.00
  0.81951E+00  0.69484E+02    0.42500E+00  0.42500E+00 -0.85000E+00  0.00000E+00  0.00000E+00  0.00000E+00    0.24590E+02  0.19553E+02 -0.44143E+02  0.14234E+01 -0.15861E+01  0.11706E+02      982.00
  0.84334E+00  0.69584E+02    0.43750E+00  0.43750E+00 -0.87500E+00  0.00000E+00  0.00000E+00  0.00000E+00    0.24567E+02  0.19632E+02 -0.44198E+02  0.13631E+01 -0.15794E+01  0.11765E+02      982.00
  0.86715E+00  0.69677E+02    0.45000E+00  0.45000E+00 -0.90000E+00  0.00000E+00  0.00000E+00  0.00000E+00    0.24544E+02  0.19708E+02 -0.44252E+02  0.13050E+01 -0.15701E+01  0.11816E+02      982.00
  0.89097E+00  0.69764E+02    0.46250E+00  0.46250E+00 -0.92500E+00  0.00000E+00  0.00000E+00  0.00000E+00    0.24521E+02  0.19781E+02 -0.44302E+02  0.12485E+01 -0.15586E+01  0.11861E+02      982.00
  0.91478E+00  0.69845E+02    0.47500E+00  0.47500E+00 -0.95000E+00  0.00000E+00  0.00000E+00  0.00000E+00    0.24499E+02  0.19852E+02 -0.44351E+02  0.11933E+01 -0.15449E+01  0.11901E+02      982.00
  0.93860E+00  0.69877E+02    0.48750E+00  0.48750E+00 -0.97500E+00  0.00000E+00  0.00000E+00  0.00000E+00    0.24465E+02  0.19907E+02 -0.44372E+02  0.11403E+01 -0.15250E+01  0.11923E+02      982.00
  0.96241E+00  0.69906E+02    0.50000E+00  0.50000E+00 -0.10000E+01  0.00000E+00  0.00000E+00  0.00000E+00    0.24432E+02  0.19960E+02 -0.44392E+02  0.10878E+01 -0.15036E+01  0.11938E+02      982.00
