          Evm          Svm            E11          E22          E33          E23          E13          E12         SDEV11       SDEV22       SDEV33       SDEV23       SDEV13       SDEV12      TEMP
  0.00000E+00  0.63323E+02    0.00000E+00  0.00000E+00  0.00000E+00  0.00000E+00  0.00000E+00  0.00000E+00    0.21311E+02  0.19162E+02 -0.40473E+02 -0.29102E+01  0.27949E+01  0.95183E+01      982.00
  0.23968E-01  0.63303E+02    0.12500E-01  0.12500E-01 -0.25000E-01  0.00000E+00  0.00000E+00  0.00000E+00    0.21667E+02  0.18816E+02 -0.40483E+02 -0.26767E+01  0.27971E+01  0.94634E+01      982.00
  0.47950E-01  0.63323E+02    0.25000E-01  0.25000E-01 -0.50000E-01  0.00000E+00  0.00000E+00  0.00000E+00    0.21943E+02  0.18564E+02 -0.40506E+02 -0.24653E+01  0.28248E+01  0.94407E+01      982.00
  0.71938E-01  0.63378E+02    0.37500E-01  0.37500E-01 -0.75000E-01  0.00000E+00  0.00000E+00  0.00000E+00    0.22184E+02  0.18358E+02 -0.40542E+02 -0.22885E+01  0.28461E+01  0.94447E+01      982.00
  0.95926E-01  0.63467E+02    0.50000E-01  0.50000E-01 -0.10000E+00  0.00000E+00  0.00000E+00  0.00000E+00    0.22408E+02  0.18183E+02 -0.40591E+02 -0.21481E+01  0.28547E+01  0.94726E+01      982.00
  0.11991E+00  0.63588E+02    0.62500E-01  0.62500E-01 -0.12500E+00  0.00000E+00  0.00000E+00  0.00000E+00    0.22605E+02  0.18049E+02 -0.40654E+02 -0.20391E+01  0.28519E+01  0.95268E+01      982.00
  0.14388E+00  0.63738E+02    0.75000E-01  0.75000E-01 -0.15000E+00  0.00000E+00  0.00000E+00  0.00000E+00    0.22792E+02  0.17939E+02 -0.40731E+02 -0.19585E+01  0.28372E+01  0.95979E+01      982.00
  0.16785E+00  0.63919E+02    0.87500E-01  0.87500E-01 -0.17500E+00  0.00000E+00  0.00000E+00  0.00000E+00    0.22958E+02  0.17865E+02 -0.40823E+02 -0.19008E+01  0.28183E+01  0.96918E+01      982.00
  0.19180E+00  0.64115E+02    0.10000E+00  0.10000E+00 -0.20000E+00  0.00000E+00  0.00000E+00  0.00000E+00    0.23115E+02  0.17808E+02 -0.40923E+02 -0.18623E+01  0.27904E+01  0.97955E+01      982.00
  0.21573E+00  0.64344E+02    0.11250E+00  0.11250E+00 -0.22500E+00  0.00000E+00  0.00000E+00  0.00000E+00    0.23258E+02  0.17780E+02 -0.41038E+02 -0.18409E+01  0.27651E+01  0.99210E+01      982.00
  0.23965E+00  0.64590E+02    0.12500E+00  0.12500E+00 -0.25000E+00  0.00000E+00  0.00000E+00  0.00000E+00    0.23388E+02  0.17777E+02 -0.41165E+02 -0.18331E+01  0.27400E+01  0.10048E+02      982.00
  0.26355E+00  0.64842E+02    0.13750E+00  0.13750E+00 -0.27500E+00  0.00000E+00  0.00000E+00  0.00000E+00    0.23512E+02  0.17782E+02 -0.41294E+02 -0.18354E+01  0.27089E+01  0.10183E+02      982.00
  0.28743E+00  0.65108E+02    0.15000E+00  0.15000E+00 -0.30000E+00  0.00000E+00  0.00000E+00  0.00000E+00    0.23620E+02  0.17814E+02 -0.41434E+02 -0.18479E+01  0.26843E+01  0.10315E+02      982.00
  0.31130E+00  0.65380E+02    0.16250E+00  0.16250E+00 -0.32500E+00  0.00000E+00  0.00000E+00  0.00000E+00    0.23723E+02  0.17852E+02 -0.41575E+02 -0.18666E+01  0.26534E+01  0.10458E+02      982.00
  0.33514E+00  0.65647E+02    0.17500E+00  0.17500E+00 -0.35000E+00  0.00000E+00  0.00000E+00  0.00000E+00    0.23809E+02  0.17909E+02 -0.41718E+02 -0.18915E+01  0.26296E+01  0.10585E+02      982.00
  0.35897E+00  0.65909E+02    0.18750E+00  0.18750E+00 -0.37500E+00  0.00000E+00  0.00000E+00  0.00000E+00    0.23884E+02  0.17975E+02 -0.41859E+02 -0.19200E+01  0.26059E+01  0.10709E+02      982.00
  0.38279E+00  0.66139E+02    0.20000E+00  0.20000E+00 -0.40000E+00  0.00000E+00  0.00000E+00  0.00000E+00    0.23940E+02  0.18044E+02 -0.41984E+02 -0.19486E+01  0.25814E+01  0.10815E+02      982.00
  0.40659E+00  0.66387E+02    0.21250E+00  0.21250E+00 -0.42500E+00  0.00000E+00  0.00000E+00  0.00000E+00    0.23997E+02  0.18122E+02 -0.42120E+02 -0.19808E+01  0.25573E+01  0.10928E+02      982.00
  0.43039E+00  0.66623E+02    0.22500E+00  0.22500E+00 -0.45000E+00  0.00000E+00  0.00000E+00  0.00000E+00    0.24047E+02  0.18203E+02 -0.42250E+02 -0.20138E+01  0.25326E+01  0.11034E+02      982.00
  0.45417E+00  0.66848E+02    0.23750E+00  0.23750E+00 -0.47500E+00  0.00000E+00  0.00000E+00  0.00000E+00    0.24088E+02  0.18286E+02 -0.42375E+02 -0.20468E+01  0.25075E+01  0.11134E+02      982.00
  0.47794E+00  0.67061E+02    0.25000E+00  0.25000E+00 -0.50000E+00  0.00000E+00  0.00000E+00  0.00000E+00    0.24123E+02  0.18370E+02 -0.42493E+02 -0.20793E+01  0.24822E+01  0.11227E+02      982.00
  0.50170E+00  0.67262E+02    0.26250E+00  0.26250E+00 -0.52500E+00  0.00000E+00  0.00000E+00  0.00000E+00    0.24151E+02  0.18455E+02 -0.42606E+02 -0.21110E+01  0.24565E+01  0.11313E+02      982.00
  0.52545E+00  0.67449E+02    0.27500E+00  0.27500E+00 -0.55000E+00  0.00000E+00  0.00000E+00  0.00000E+00    0.24173E+02  0.18539E+02 -0.42712E+02 -0.21415E+01  0.24308E+01  0.11393E+02      982.00
  0.54920E+00  0.67622E+02    0.28750E+00  0.28750E+00 -0.57500E+00  0.00000E+00  0.00000E+00  0.00000E+00    0.24184E+02  0.18624E+02 -0.42808E+02 -0.21736E+01  0.24004E+01  0.11473E+02      982.00
  0.57294E+00  0.67807E+02    0.30000E+00  0.30000E+00 -0.60000E+00  0.00000E+00  0.00000E+00  0.00000E+00    0.24201E+02  0.18714E+02 -0.42916E+02 -0.22000E+01  0.23738E+01  0.11544E+02      982.00
  0.59667E+00  0.67958E+02    0.31250E+00  0.31250E+00 -0.62500E+00  0.00000E+00  0.00000E+00  0.00000E+00    0.24209E+02  0.18793E+02 -0.43003E+02 -0.22259E+01  0.23483E+01  0.11605E+02      982.00
  0.62040E+00  0.68061E+02    0.32500E+00  0.32500E+00 -0.65000E+00  0.00000E+00  0.00000E+00  0.00000E+00    0.24202E+02  0.18859E+02 -0.43061E+02 -0.22495E+01  0.23268E+01  0.11652E+02      982.00
  0.64413E+00  0.68229E+02    0.33750E+00  0.33750E+00 -0.67500E+00  0.00000E+00  0.00000E+00  0.00000E+00    0.24217E+02  0.18944E+02 -0.43160E+02 -0.22744E+01  0.22995E+01  0.11713E+02      982.00
  0.66785E+00  0.68313E+02    0.35000E+00  0.35000E+00 -0.70000E+00  0.00000E+00  0.00000E+00  0.00000E+00    0.24205E+02  0.19004E+02 -0.43209E+02 -0.22951E+01  0.22786E+01  0.11751E+02      982.00
  0.69157E+00  0.68431E+02    0.36250E+00  0.36250E+00 -0.72500E+00  0.00000E+00  0.00000E+00  0.00000E+00    0.24205E+02  0.19073E+02 -0.43278E+02 -0.23158E+01  0.22560E+01  0.11796E+02      982.00
  0.71529E+00  0.68539E+02    0.37500E+00  0.37500E+00 -0.75000E+00  0.00000E+00  0.00000E+00  0.00000E+00    0.24202E+02  0.19140E+02 -0.43342E+02 -0.23350E+01  0.22336E+01  0.11837E+02      982.00
  0.73900E+00  0.68631E+02    0.38750E+00  0.38750E+00 -0.77500E+00  0.00000E+00  0.00000E+00  0.00000E+00    0.24187E+02  0.19207E+02 -0.43394E+02 -0.23589E+01  0.22070E+01  0.11880E+02      982.00
  0.76271E+00  0.68728E+02    0.40000E+00  0.40000E+00 -0.80000E+00  0.00000E+00  0.00000E+00  0.00000E+00    0.24183E+02  0.19270E+02 -0.43452E+02 -0.23756E+01  0.21853E+01  0.11915E+02      982.00
  0.78642E+00  0.68814E+02    0.41250E+00  0.41250E+00 -0.82500E+00  0.00000E+00  0.00000E+00  0.00000E+00    0.24176E+02  0.19328E+02 -0.43504E+02 -0.23908E+01  0.21649E+01  0.11946E+02      982.00
  0.81013E+00  0.68894E+02    0.42500E+00  0.42500E+00 -0.85000E+00  0.00000E+00  0.00000E+00  0.00000E+00    0.24169E+02  0.19383E+02 -0.43553E+02 -0.24050E+01  0.21455E+01  0.11974E+02      982.00
  0.83384E+00  0.68969E+02    0.43750E+00  0.43750E+00 -0.87500E+00  0.00000E+00  0.00000E+00  0.00000E+00    0.24162E+02  0.19436E+02 -0.43598E+02 -0.24183E+01  0.21269E+01  0.12000E+02      982.00
  0.85754E+00  0.69038E+02    0.45000E+00  0.45000E+00 -0.90000E+00  0.00000E+00  0.00000E+00  0.00000E+00    0.24154E+02  0.19487E+02 -0.43641E+02 -0.24307E+01  0.21091E+01  0.12024E+02      982.00
  0.88125E+00  0.69103E+02    0.46250E+00  0.46250E+00 -0.92500E+00  0.00000E+00  0.00000E+00  0.00000E+00    0.24145E+02  0.19535E+02 -0.43680E+02 -0.24423E+01  0.20922E+01  0.12047E+02      982.00
  0.90495E+00  0.69164E+02    0.47500E+00  0.47500E+00 -0.95000E+00  0.00000E+00  0.00000E+00  0.00000E+00    0.24136E+02  0.19581E+02 -0.43717E+02 -0.24532E+01  0.20761E+01  0.12067E+02      982.00
  0.92865E+00  0.69220E+02    0.48750E+00  0.48750E+00 -0.97500E+00  0.00000E+00  0.00000E+00  0.00000E+00    0.24127E+02  0.19625E+02 -0.43752E+02 -0.24635E+01  0.20609E+01  0.12086E+02      982.00
  0.95236E+00  0.69273E+02    0.50000E+00  0.50000E+00 -0.10000E+01  0.00000E+00  0.00000E+00  0.00000E+00    0.24118E+02  0.19667E+02 -0.43785E+02 -0.24731E+01  0.20465E+01  0.12104E+02      982.00
