          Evm          Svm            E11          E22          E33          E23          E13          E12         SDEV11       SDEV22       SDEV33       SDEV23       SDEV13       SDEV12      TEMP
  0.00000E+00  0.65289E+02    0.00000E+00  0.00000E+00  0.00000E+00  0.00000E+00  0.00000E+00  0.00000E+00    0.18688E+02  0.23448E+02 -0.42136E+02 -0.47825E+00 -0.60194E+01 -0.68662E+01      982.00
  0.24202E-01  0.65296E+02    0.12500E-01  0.12500E-01 -0.25000E-01  0.00000E+00  0.00000E+00  0.00000E+00    0.18221E+02  0.23964E+02 -0.42185E+02 -0.57917E+00 -0.57670E+01 -0.66815E+01      982.00
  0.48429E-01  0.65306E+02    0.25000E-01  0.25000E-01 -0.50000E-01  0.00000E+00  0.00000E+00  0.00000E+00    0.17844E+02  0.24404E+02 -0.42248E+02 -0.66354E+00 -0.55358E+01 -0.64125E+01      982.00
  0.72689E-01  0.65230E+02    0.37500E-01  0.37500E-01 -0.75000E-01  0.00000E+00  0.00000E+00  0.00000E+00    0.17529E+02  0.24741E+02 -0.42271E+02 -0.76155E+00 -0.52801E+01 -0.60628E+01      982.00
  0.96990E-01  0.65145E+02    0.50000E-01  0.50000E-01 -0.10000E+00  0.00000E+00  0.00000E+00  0.00000E+00    0.17259E+02  0.25029E+02 -0.42288E+02 -0.95820E+00 -0.50159E+01 -0.56771E+01      982.00
  0.12133E+00  0.65139E+02    0.62500E-01  0.62500E-01 -0.12500E+00  0.00000E+00  0.00000E+00  0.00000E+00    0.17025E+02  0.25315E+02 -0.42340E+02 -0.12553E+01 -0.47837E+01 -0.53105E+01      982.00
  0.14571E+00  0.65219E+02    0.75000E-01  0.75000E-01 -0.15000E+00  0.00000E+00  0.00000E+00  0.00000E+00    0.16816E+02  0.25609E+02 -0.42425E+02 -0.15936E+01 -0.45954E+01 -0.49946E+01      982.00
  0.17010E+00  0.65365E+02    0.87500E-01  0.87500E-01 -0.17500E+00  0.00000E+00  0.00000E+00  0.00000E+00    0.16626E+02  0.25905E+02 -0.42532E+02 -0.19227E+01 -0.44486E+01 -0.47420E+01      982.00
  0.19450E+00  0.65561E+02    0.10000E+00  0.10000E+00 -0.20000E+00  0.00000E+00  0.00000E+00  0.00000E+00    0.16462E+02  0.26193E+02 -0.42655E+02 -0.22127E+01 -0.43424E+01 -0.45572E+01      982.00
  0.21890E+00  0.65795E+02    0.11250E+00  0.11250E+00 -0.22500E+00  0.00000E+00  0.00000E+00  0.00000E+00    0.16309E+02  0.26482E+02 -0.42790E+02 -0.24576E+01 -0.42621E+01 -0.44309E+01      982.00
  0.24329E+00  0.66055E+02    0.12500E+00  0.12500E+00 -0.25000E+00  0.00000E+00  0.00000E+00  0.00000E+00    0.16167E+02  0.26769E+02 -0.42936E+02 -0.26568E+01 -0.42025E+01 -0.43547E+01      982.00
  0.26766E+00  0.66329E+02    0.13750E+00  0.13750E+00 -0.27500E+00  0.00000E+00  0.00000E+00  0.00000E+00    0.16042E+02  0.27045E+02 -0.43087E+02 -0.28130E+01 -0.41625E+01 -0.43213E+01      982.00
  0.29202E+00  0.66612E+02    0.15000E+00  0.15000E+00 -0.30000E+00  0.00000E+00  0.00000E+00  0.00000E+00    0.15921E+02  0.27318E+02 -0.43240E+02 -0.29356E+01 -0.41309E+01 -0.43172E+01      982.00
  0.31637E+00  0.66894E+02    0.16250E+00  0.16250E+00 -0.32500E+00  0.00000E+00  0.00000E+00  0.00000E+00    0.15810E+02  0.27582E+02 -0.43391E+02 -0.30294E+01 -0.41076E+01 -0.43363E+01      982.00
  0.34069E+00  0.67168E+02    0.17500E+00  0.17500E+00 -0.35000E+00  0.00000E+00  0.00000E+00  0.00000E+00    0.15713E+02  0.27824E+02 -0.43538E+02 -0.30987E+01 -0.40962E+01 -0.43759E+01      982.00
  0.36500E+00  0.67437E+02    0.18750E+00  0.18750E+00 -0.37500E+00  0.00000E+00  0.00000E+00  0.00000E+00    0.15622E+02  0.28059E+02 -0.43681E+02 -0.31508E+01 -0.40874E+01 -0.44256E+01      982.00
  0.38929E+00  0.67684E+02    0.20000E+00  0.20000E+00 -0.40000E+00  0.00000E+00  0.00000E+00  0.00000E+00    0.15535E+02  0.28276E+02 -0.43811E+02 -0.31886E+01 -0.40779E+01 -0.44812E+01      982.00
  0.41356E+00  0.67919E+02    0.21250E+00  0.21250E+00 -0.42500E+00  0.00000E+00  0.00000E+00  0.00000E+00    0.15462E+02  0.28473E+02 -0.43935E+02 -0.32147E+01 -0.40795E+01 -0.45469E+01      982.00
  0.43782E+00  0.68129E+02    0.22500E+00  0.22500E+00 -0.45000E+00  0.00000E+00  0.00000E+00  0.00000E+00    0.15387E+02  0.28656E+02 -0.44043E+02 -0.32334E+01 -0.40745E+01 -0.46115E+01      982.00
  0.46206E+00  0.68337E+02    0.23750E+00  0.23750E+00 -0.47500E+00  0.00000E+00  0.00000E+00  0.00000E+00    0.15325E+02  0.28825E+02 -0.44150E+02 -0.32456E+01 -0.40822E+01 -0.46849E+01      982.00
  0.48629E+00  0.68513E+02    0.25000E+00  0.25000E+00 -0.50000E+00  0.00000E+00  0.00000E+00  0.00000E+00    0.15267E+02  0.28974E+02 -0.44241E+02 -0.32512E+01 -0.40792E+01 -0.47493E+01      982.00
  0.51050E+00  0.68685E+02    0.26250E+00  0.26250E+00 -0.52500E+00  0.00000E+00  0.00000E+00  0.00000E+00    0.15214E+02  0.29114E+02 -0.44328E+02 -0.32538E+01 -0.40871E+01 -0.48204E+01      982.00
  0.53470E+00  0.68825E+02    0.27500E+00  0.27500E+00 -0.55000E+00  0.00000E+00  0.00000E+00  0.00000E+00    0.15159E+02  0.29237E+02 -0.44396E+02 -0.32547E+01 -0.40842E+01 -0.48863E+01      982.00
  0.55889E+00  0.68970E+02    0.28750E+00  0.28750E+00 -0.57500E+00  0.00000E+00  0.00000E+00  0.00000E+00    0.15114E+02  0.29354E+02 -0.44468E+02 -0.32522E+01 -0.40932E+01 -0.49554E+01      982.00
  0.58307E+00  0.69101E+02    0.30000E+00  0.30000E+00 -0.60000E+00  0.00000E+00  0.00000E+00  0.00000E+00    0.15073E+02  0.29459E+02 -0.44532E+02 -0.32480E+01 -0.41020E+01 -0.50229E+01      982.00
  0.60724E+00  0.69212E+02    0.31250E+00  0.31250E+00 -0.62500E+00  0.00000E+00  0.00000E+00  0.00000E+00    0.15029E+02  0.29555E+02 -0.44584E+02 -0.32409E+01 -0.40997E+01 -0.50867E+01      982.00
  0.63140E+00  0.69322E+02    0.32500E+00  0.32500E+00 -0.65000E+00  0.00000E+00  0.00000E+00  0.00000E+00    0.14993E+02  0.29644E+02 -0.44636E+02 -0.32339E+01 -0.41083E+01 -0.51511E+01      982.00
  0.65554E+00  0.69415E+02    0.33750E+00  0.33750E+00 -0.67500E+00  0.00000E+00  0.00000E+00  0.00000E+00    0.14950E+02  0.29728E+02 -0.44678E+02 -0.32220E+01 -0.41080E+01 -0.52200E+01      982.00
  0.67968E+00  0.69505E+02    0.35000E+00  0.35000E+00 -0.70000E+00  0.00000E+00  0.00000E+00  0.00000E+00    0.14918E+02  0.29801E+02 -0.44718E+02 -0.32126E+01 -0.41155E+01 -0.52810E+01      982.00
  0.70380E+00  0.69584E+02    0.36250E+00  0.36250E+00 -0.72500E+00  0.00000E+00  0.00000E+00  0.00000E+00    0.14888E+02  0.29865E+02 -0.44753E+02 -0.32033E+01 -0.41227E+01 -0.53400E+01      982.00
  0.72792E+00  0.69656E+02    0.37500E+00  0.37500E+00 -0.75000E+00  0.00000E+00  0.00000E+00  0.00000E+00    0.14860E+02  0.29924E+02 -0.44784E+02 -0.31939E+01 -0.41298E+01 -0.53978E+01      982.00
  0.75203E+00  0.69721E+02    0.38750E+00  0.38750E+00 -0.77500E+00  0.00000E+00  0.00000E+00  0.00000E+00    0.14833E+02  0.29978E+02 -0.44811E+02 -0.31843E+01 -0.41365E+01 -0.54541E+01      982.00
  0.77613E+00  0.69779E+02    0.40000E+00  0.40000E+00 -0.80000E+00  0.00000E+00  0.00000E+00  0.00000E+00    0.14807E+02  0.30027E+02 -0.44834E+02 -0.31748E+01 -0.41429E+01 -0.55092E+01      982.00
  0.80023E+00  0.69832E+02    0.41250E+00  0.41250E+00 -0.82500E+00  0.00000E+00  0.00000E+00  0.00000E+00    0.14782E+02  0.30072E+02 -0.44854E+02 -0.31652E+01 -0.41489E+01 -0.55628E+01      982.00
  0.82431E+00  0.69880E+02    0.42500E+00  0.42500E+00 -0.85000E+00  0.00000E+00  0.00000E+00  0.00000E+00    0.14758E+02  0.30113E+02 -0.44871E+02 -0.31558E+01 -0.41547E+01 -0.56152E+01      982.00
  0.84839E+00  0.69923E+02    0.43750E+00  0.43750E+00 -0.87500E+00  0.00000E+00  0.00000E+00  0.00000E+00    0.14735E+02  0.30150E+02 -0.44885E+02 -0.31463E+01 -0.41602E+01 -0.56662E+01      982.00
  0.87247E+00  0.69963E+02    0.45000E+00  0.45000E+00 -0.90000E+00  0.00000E+00  0.00000E+00  0.00000E+00    0.14709E+02  0.30187E+02 -0.44896E+02 -0.31479E+01 -0.41728E+01 -0.57147E+01      982.00
  0.89653E+00  0.69998E+02    0.46250E+00  0.46250E+00 -0.92500E+00  0.00000E+00  0.00000E+00  0.00000E+00    0.14688E+02  0.30218E+02 -0.44906E+02 -0.31395E+01 -0.41775E+01 -0.57624E+01      982.00
  0.92059E+00  0.69983E+02    0.47500E+00  0.47500E+00 -0.95000E+00  0.00000E+00  0.00000E+00  0.00000E+00    0.14668E+02  0.30221E+02 -0.44889E+02 -0.31147E+01 -0.41723E+01 -0.58053E+01      982.00
  0.94464E+00  0.69962E+02    0.48750E+00  0.48750E+00 -0.97500E+00  0.00000E+00  0.00000E+00  0.00000E+00    0.14646E+02  0.30221E+02 -0.44867E+02 -0.30977E+01 -0.41679E+01 -0.58483E+01      982.00
  0.96869E+00  0.69942E+02    0.50000E+00  0.50000E+00 -0.10000E+01  0.00000E+00  0.00000E+00  0.00000E+00    0.14628E+02  0.30220E+02 -0.44848E+02 -0.30785E+01 -0.41606E+01 -0.58829E+01      982.00
