          Evm          Svm            E11          E22          E33          E23          E13          E12         SDEV11       SDEV22       SDEV33       SDEV23       SDEV13       SDEV12      TEMP
  0.00000E+00  0.65450E+02    0.00000E+00  0.00000E+00  0.00000E+00  0.00000E+00  0.00000E+00  0.00000E+00    0.25834E+02  0.16765E+02 -0.42599E+02 -0.48085E+01  0.29802E+01 -0.37829E+01      982.00
  0.24408E-01  0.65351E+02    0.12500E-01  0.12500E-01 -0.25000E-01  0.00000E+00  0.00000E+00  0.00000E+00    0.26074E+02  0.16431E+02 -0.42505E+02 -0.46862E+01  0.30870E+01 -0.37219E+01      982.00
  0.48798E-01  0.65325E+02    0.25000E-01  0.25000E-01 -0.50000E-01  0.00000E+00  0.00000E+00  0.00000E+00    0.26334E+02  0.16123E+02 -0.42457E+02 -0.45904E+01  0.31725E+01 -0.36496E+01      982.00
  0.73170E-01  0.65372E+02    0.37500E-01  0.37500E-01 -0.75000E-01  0.00000E+00  0.00000E+00  0.00000E+00    0.26637E+02  0.15817E+02 -0.42454E+02 -0.44894E+01  0.32524E+01 -0.35721E+01      982.00
  0.97523E-01  0.65491E+02    0.50000E-01  0.50000E-01 -0.10000E+00  0.00000E+00  0.00000E+00  0.00000E+00    0.26961E+02  0.15535E+02 -0.42496E+02 -0.44016E+01  0.33184E+01 -0.34939E+01      982.00
  0.12186E+00  0.65675E+02    0.62500E-01  0.62500E-01 -0.12500E+00  0.00000E+00  0.00000E+00  0.00000E+00    0.27304E+02  0.15277E+02 -0.42582E+02 -0.43201E+01  0.33703E+01 -0.34176E+01      982.00
  0.14617E+00  0.65917E+02    0.75000E-01  0.75000E-01 -0.15000E+00  0.00000E+00  0.00000E+00  0.00000E+00    0.27657E+02  0.15048E+02 -0.42705E+02 -0.42448E+01  0.34055E+01 -0.33462E+01      982.00
  0.17047E+00  0.66199E+02    0.87500E-01  0.87500E-01 -0.17500E+00  0.00000E+00  0.00000E+00  0.00000E+00    0.28012E+02  0.14846E+02 -0.42858E+02 -0.41644E+01  0.34252E+01 -0.32786E+01      982.00
  0.19474E+00  0.66522E+02    0.10000E+00  0.10000E+00 -0.20000E+00  0.00000E+00  0.00000E+00  0.00000E+00    0.28362E+02  0.14679E+02 -0.43041E+02 -0.40980E+01  0.34208E+01 -0.32216E+01      982.00
  0.21901E+00  0.66873E+02    0.11250E+00  0.11250E+00 -0.22500E+00  0.00000E+00  0.00000E+00  0.00000E+00    0.28703E+02  0.14544E+02 -0.43246E+02 -0.40322E+01  0.33934E+01 -0.31725E+01      982.00
  0.24326E+00  0.67244E+02    0.12500E+00  0.12500E+00 -0.25000E+00  0.00000E+00  0.00000E+00  0.00000E+00    0.29039E+02  0.14431E+02 -0.43470E+02 -0.39611E+01  0.33411E+01 -0.31293E+01      982.00
  0.26750E+00  0.67626E+02    0.13750E+00  0.13750E+00 -0.27500E+00  0.00000E+00  0.00000E+00  0.00000E+00    0.29365E+02  0.14343E+02 -0.43707E+02 -0.38780E+01  0.32666E+01 -0.30890E+01      982.00
  0.29174E+00  0.68030E+02    0.15000E+00  0.15000E+00 -0.30000E+00  0.00000E+00  0.00000E+00  0.00000E+00    0.29677E+02  0.14287E+02 -0.43964E+02 -0.38012E+01  0.31702E+01 -0.30583E+01      982.00
  0.31597E+00  0.68452E+02    0.16250E+00  0.16250E+00 -0.32500E+00  0.00000E+00  0.00000E+00  0.00000E+00    0.29978E+02  0.14258E+02 -0.44236E+02 -0.37267E+01  0.30698E+01 -0.30299E+01      982.00
  0.34020E+00  0.68877E+02    0.17500E+00  0.17500E+00 -0.35000E+00  0.00000E+00  0.00000E+00  0.00000E+00    0.30251E+02  0.14262E+02 -0.44513E+02 -0.36689E+01  0.30019E+01 -0.29902E+01      982.00
  0.36444E+00  0.69201E+02    0.18750E+00  0.18750E+00 -0.37500E+00  0.00000E+00  0.00000E+00  0.00000E+00    0.30438E+02  0.14297E+02 -0.44736E+02 -0.36187E+01  0.29683E+01 -0.28771E+01      982.00
  0.38868E+00  0.69395E+02    0.20000E+00  0.20000E+00 -0.40000E+00  0.00000E+00  0.00000E+00  0.00000E+00    0.30521E+02  0.14379E+02 -0.44899E+02 -0.35683E+01  0.28692E+01 -0.26770E+01      982.00
  0.41294E+00  0.69478E+02    0.21250E+00  0.21250E+00 -0.42500E+00  0.00000E+00  0.00000E+00  0.00000E+00    0.30548E+02  0.14456E+02 -0.45004E+02 -0.34734E+01  0.26825E+01 -0.24623E+01      982.00
  0.43723E+00  0.69557E+02    0.22500E+00  0.22500E+00 -0.45000E+00  0.00000E+00  0.00000E+00  0.00000E+00    0.30595E+02  0.14514E+02 -0.45109E+02 -0.33346E+01  0.24122E+01 -0.22402E+01      982.00
  0.46155E+00  0.69646E+02    0.23750E+00  0.23750E+00 -0.47500E+00  0.00000E+00  0.00000E+00  0.00000E+00    0.30649E+02  0.14565E+02 -0.45215E+02 -0.31966E+01  0.21283E+01 -0.20425E+01      982.00
  0.48590E+00  0.69748E+02    0.25000E+00  0.25000E+00 -0.50000E+00  0.00000E+00  0.00000E+00  0.00000E+00    0.30710E+02  0.14610E+02 -0.45320E+02 -0.30675E+01  0.18567E+01 -0.18703E+01      982.00
  0.51027E+00  0.69860E+02    0.26250E+00  0.26250E+00 -0.52500E+00  0.00000E+00  0.00000E+00  0.00000E+00    0.30775E+02  0.14649E+02 -0.45424E+02 -0.29551E+01  0.16159E+01 -0.17241E+01      982.00
  0.53465E+00  0.69981E+02    0.27500E+00  0.27500E+00 -0.55000E+00  0.00000E+00  0.00000E+00  0.00000E+00    0.30846E+02  0.14679E+02 -0.45525E+02 -0.28585E+01  0.14068E+01 -0.15969E+01      982.00
  0.55904E+00  0.70106E+02    0.28750E+00  0.28750E+00 -0.57500E+00  0.00000E+00  0.00000E+00  0.00000E+00    0.30912E+02  0.14711E+02 -0.45623E+02 -0.27850E+01  0.12453E+01 -0.14972E+01      982.00
  0.58345E+00  0.70232E+02    0.30000E+00  0.30000E+00 -0.60000E+00  0.00000E+00  0.00000E+00  0.00000E+00    0.30982E+02  0.14735E+02 -0.45717E+02 -0.27239E+01  0.11118E+01 -0.14108E+01      982.00
  0.60786E+00  0.70355E+02    0.31250E+00  0.31250E+00 -0.62500E+00  0.00000E+00  0.00000E+00  0.00000E+00    0.31039E+02  0.14767E+02 -0.45806E+02 -0.26900E+01  0.10296E+01 -0.13403E+01      982.00
  0.63227E+00  0.70466E+02    0.32500E+00  0.32500E+00 -0.65000E+00  0.00000E+00  0.00000E+00  0.00000E+00    0.31100E+02  0.14784E+02 -0.45884E+02 -0.26554E+01  0.95355E+00 -0.12805E+01      982.00
  0.65669E+00  0.70582E+02    0.33750E+00  0.33750E+00 -0.67500E+00  0.00000E+00  0.00000E+00  0.00000E+00    0.31156E+02  0.14807E+02 -0.45964E+02 -0.26341E+01  0.90482E+00 -0.12322E+01      982.00
  0.68111E+00  0.70696E+02    0.35000E+00  0.35000E+00 -0.70000E+00  0.00000E+00  0.00000E+00  0.00000E+00    0.31219E+02  0.14821E+02 -0.46040E+02 -0.26125E+01  0.86003E+00 -0.11856E+01      982.00
  0.70553E+00  0.70799E+02    0.36250E+00  0.36250E+00 -0.72500E+00  0.00000E+00  0.00000E+00  0.00000E+00    0.31268E+02  0.14842E+02 -0.46110E+02 -0.26064E+01  0.84399E+00 -0.11444E+01      982.00
  0.72996E+00  0.70891E+02    0.37500E+00  0.37500E+00 -0.75000E+00  0.00000E+00  0.00000E+00  0.00000E+00    0.31316E+02  0.14853E+02 -0.46170E+02 -0.26058E+01  0.83417E+00 -0.10989E+01      982.00
  0.75438E+00  0.70981E+02    0.38750E+00  0.38750E+00 -0.77500E+00  0.00000E+00  0.00000E+00  0.00000E+00    0.31357E+02  0.14873E+02 -0.46230E+02 -0.26076E+01  0.83611E+00 -0.10614E+01      982.00
  0.77880E+00  0.71063E+02    0.40000E+00  0.40000E+00 -0.80000E+00  0.00000E+00  0.00000E+00  0.00000E+00    0.31394E+02  0.14889E+02 -0.46284E+02 -0.26119E+01  0.84342E+00 -0.10254E+01      982.00
  0.80323E+00  0.71139E+02    0.41250E+00  0.41250E+00 -0.82500E+00  0.00000E+00  0.00000E+00  0.00000E+00    0.31429E+02  0.14904E+02 -0.46333E+02 -0.26175E+01  0.85454E+00 -0.98997E+00      982.00
  0.82765E+00  0.71209E+02    0.42500E+00  0.42500E+00 -0.85000E+00  0.00000E+00  0.00000E+00  0.00000E+00    0.31462E+02  0.14917E+02 -0.46379E+02 -0.26242E+01  0.86859E+00 -0.95496E+00      982.00
  0.85207E+00  0.71274E+02    0.43750E+00  0.43750E+00 -0.87500E+00  0.00000E+00  0.00000E+00  0.00000E+00    0.31493E+02  0.14928E+02 -0.46421E+02 -0.26317E+01  0.88488E+00 -0.92005E+00      982.00
  0.87650E+00  0.71333E+02    0.45000E+00  0.45000E+00 -0.90000E+00  0.00000E+00  0.00000E+00  0.00000E+00    0.31521E+02  0.14938E+02 -0.46459E+02 -0.26399E+01  0.90289E+00 -0.88504E+00      982.00
  0.90092E+00  0.71343E+02    0.46250E+00  0.46250E+00 -0.92500E+00  0.00000E+00  0.00000E+00  0.00000E+00    0.31528E+02  0.14936E+02 -0.46464E+02 -0.26326E+01  0.90879E+00 -0.91750E+00      982.00
  0.92534E+00  0.71336E+02    0.47500E+00  0.47500E+00 -0.95000E+00  0.00000E+00  0.00000E+00  0.00000E+00    0.31530E+02  0.14932E+02 -0.46461E+02 -0.26263E+01  0.91938E+00 -0.79944E+00      982.00
  0.94977E+00  0.71332E+02    0.48750E+00  0.48750E+00 -0.97500E+00  0.00000E+00  0.00000E+00  0.00000E+00    0.31530E+02  0.14929E+02 -0.46459E+02 -0.26251E+01  0.93377E+00 -0.76943E+00      982.00
  0.97419E+00  0.71345E+02    0.50000E+00  0.50000E+00 -0.10000E+01  0.00000E+00  0.00000E+00  0.00000E+00    0.31538E+02  0.14928E+02 -0.46466E+02 -0.26229E+01  0.93967E+00 -0.79583E+00      982.00
