          Evm          Svm            E11          E22          E33          E23          E13          E12         SDEV11       SDEV22       SDEV33       SDEV23       SDEV13       SDEV12      TEMP
  0.00000E+00  0.55161E+02    0.00000E+00  0.00000E+00  0.00000E+00  0.00000E+00  0.00000E+00  0.00000E+00    0.21167E+02  0.14083E+02 -0.35250E+02 -0.17813E+01  0.25623E+01  0.77496E+01      982.00
  0.23964E-01  0.54932E+02    0.12500E-01  0.12500E-01 -0.25000E-01  0.00000E+00  0.00000E+00  0.00000E+00    0.20774E+02  0.14339E+02 -0.35113E+02 -0.19172E+01  0.25075E+01  0.78012E+01      982.00
  0.47934E-01  0.54836E+02    0.25000E-01  0.25000E-01 -0.50000E-01  0.00000E+00  0.00000E+00  0.00000E+00    0.20347E+02  0.14701E+02 -0.35048E+02 -0.21036E+01  0.24056E+01  0.79310E+01      982.00
  0.71901E-01  0.54883E+02    0.37500E-01  0.37500E-01 -0.75000E-01  0.00000E+00  0.00000E+00  0.00000E+00    0.19871E+02  0.15183E+02 -0.35054E+02 -0.23408E+01  0.22433E+01  0.81514E+01      982.00
  0.95853E-01  0.55045E+02    0.50000E-01  0.50000E-01 -0.10000E+00  0.00000E+00  0.00000E+00  0.00000E+00    0.19370E+02  0.15741E+02 -0.35111E+02 -0.26102E+01  0.20424E+01  0.84344E+01      982.00
  0.11977E+00  0.55280E+02    0.62500E-01  0.62500E-01 -0.12500E+00  0.00000E+00  0.00000E+00  0.00000E+00    0.18873E+02  0.16319E+02 -0.35191E+02 -0.28878E+01  0.18286E+01  0.87464E+01      982.00
  0.14364E+00  0.55552E+02    0.75000E-01  0.75000E-01 -0.15000E+00  0.00000E+00  0.00000E+00  0.00000E+00    0.18438E+02  0.16842E+02 -0.35280E+02 -0.31441E+01  0.16299E+01  0.90561E+01      982.00
  0.16746E+00  0.55853E+02    0.87500E-01  0.87500E-01 -0.17500E+00  0.00000E+00  0.00000E+00  0.00000E+00    0.18082E+02  0.17294E+02 -0.35376E+02 -0.33724E+01  0.14481E+01  0.93615E+01      982.00
  0.19121E+00  0.56178E+02    0.10000E+00  0.10000E+00 -0.20000E+00  0.00000E+00  0.00000E+00  0.00000E+00    0.17819E+02  0.17664E+02 -0.35483E+02 -0.35677E+01  0.12839E+01  0.96614E+01      982.00
  0.21490E+00  0.56522E+02    0.11250E+00  0.11250E+00 -0.22500E+00  0.00000E+00  0.00000E+00  0.00000E+00    0.17640E+02  0.17960E+02 -0.35600E+02 -0.37331E+01  0.11318E+01  0.99575E+01      982.00
  0.23852E+00  0.56877E+02    0.12500E+00  0.12500E+00 -0.25000E+00  0.00000E+00  0.00000E+00  0.00000E+00    0.17528E+02  0.18198E+02 -0.35726E+02 -0.38707E+01  0.99049E+00  0.10247E+02      982.00
  0.26207E+00  0.57228E+02    0.13750E+00  0.13750E+00 -0.27500E+00  0.00000E+00  0.00000E+00  0.00000E+00    0.17479E+02  0.18376E+02 -0.35854E+02 -0.39819E+01  0.85832E+00  0.10523E+02      982.00
  0.28557E+00  0.57568E+02    0.15000E+00  0.15000E+00 -0.30000E+00  0.00000E+00  0.00000E+00  0.00000E+00    0.17474E+02  0.18507E+02 -0.35981E+02 -0.40719E+01  0.73273E+00  0.10785E+02      982.00
  0.30900E+00  0.57888E+02    0.16250E+00  0.16250E+00 -0.32500E+00  0.00000E+00  0.00000E+00  0.00000E+00    0.17508E+02  0.18595E+02 -0.36103E+02 -0.41370E+01  0.62564E+00  0.11028E+02      982.00
  0.33239E+00  0.58178E+02    0.17500E+00  0.17500E+00 -0.35000E+00  0.00000E+00  0.00000E+00  0.00000E+00    0.17564E+02  0.18650E+02 -0.36214E+02 -0.41849E+01  0.52484E+00  0.11248E+02      982.00
  0.35573E+00  0.58462E+02    0.18750E+00  0.18750E+00 -0.37500E+00  0.00000E+00  0.00000E+00  0.00000E+00    0.17639E+02  0.18687E+02 -0.36325E+02 -0.42197E+01  0.43787E+00  0.11460E+02      982.00
  0.37903E+00  0.58727E+02    0.20000E+00  0.20000E+00 -0.40000E+00  0.00000E+00  0.00000E+00  0.00000E+00    0.17723E+02  0.18707E+02 -0.36430E+02 -0.42438E+01  0.36051E+00  0.11656E+02      982.00
  0.40230E+00  0.58973E+02    0.21250E+00  0.21250E+00 -0.42500E+00  0.00000E+00  0.00000E+00  0.00000E+00    0.17812E+02  0.18715E+02 -0.36527E+02 -0.42592E+01  0.29283E+00  0.11839E+02      982.00
  0.42552E+00  0.59213E+02    0.22500E+00  0.22500E+00 -0.45000E+00  0.00000E+00  0.00000E+00  0.00000E+00    0.17900E+02  0.18723E+02 -0.36624E+02 -0.42673E+01  0.24207E+00  0.12013E+02      982.00
  0.44872E+00  0.59426E+02    0.23750E+00  0.23750E+00 -0.47500E+00  0.00000E+00  0.00000E+00  0.00000E+00    0.17991E+02  0.18717E+02 -0.36708E+02 -0.42708E+01  0.19263E+00  0.12170E+02      982.00
  0.47188E+00  0.59623E+02    0.25000E+00  0.25000E+00 -0.50000E+00  0.00000E+00  0.00000E+00  0.00000E+00    0.18082E+02  0.18705E+02 -0.36786E+02 -0.42697E+01  0.15200E+00  0.12317E+02      982.00
  0.49502E+00  0.59808E+02    0.26250E+00  0.26250E+00 -0.52500E+00  0.00000E+00  0.00000E+00  0.00000E+00    0.18170E+02  0.18690E+02 -0.36860E+02 -0.42649E+01  0.11981E+00  0.12453E+02      982.00
  0.51813E+00  0.59969E+02    0.27500E+00  0.27500E+00 -0.55000E+00  0.00000E+00  0.00000E+00  0.00000E+00    0.18260E+02  0.18664E+02 -0.36924E+02 -0.42561E+01  0.90557E-01  0.12573E+02      982.00
  0.54122E+00  0.60131E+02    0.28750E+00  0.28750E+00 -0.57500E+00  0.00000E+00  0.00000E+00  0.00000E+00    0.18342E+02  0.18646E+02 -0.36988E+02 -0.42454E+01  0.74006E-01  0.12693E+02      982.00
  0.56429E+00  0.60281E+02    0.30000E+00  0.30000E+00 -0.60000E+00  0.00000E+00  0.00000E+00  0.00000E+00    0.18420E+02  0.18628E+02 -0.37047E+02 -0.42320E+01  0.64199E-01  0.12804E+02      982.00
  0.58733E+00  0.60424E+02    0.31250E+00  0.31250E+00 -0.62500E+00  0.00000E+00  0.00000E+00  0.00000E+00    0.18493E+02  0.18611E+02 -0.37104E+02 -0.42175E+01  0.61022E-01  0.12911E+02      982.00
  0.61036E+00  0.60560E+02    0.32500E+00  0.32500E+00 -0.65000E+00  0.00000E+00  0.00000E+00  0.00000E+00    0.18561E+02  0.18596E+02 -0.37157E+02 -0.42012E+01  0.63681E-01  0.13014E+02      982.00
  0.63337E+00  0.60689E+02    0.33750E+00  0.33750E+00 -0.67500E+00  0.00000E+00  0.00000E+00  0.00000E+00    0.18626E+02  0.18582E+02 -0.37207E+02 -0.41831E+01  0.71745E-01  0.13112E+02      982.00
  0.65636E+00  0.60812E+02    0.35000E+00  0.35000E+00 -0.70000E+00  0.00000E+00  0.00000E+00  0.00000E+00    0.18686E+02  0.18569E+02 -0.37255E+02 -0.41631E+01  0.84838E-01  0.13206E+02      982.00
  0.67933E+00  0.60914E+02    0.36250E+00  0.36250E+00 -0.72500E+00  0.00000E+00  0.00000E+00  0.00000E+00    0.18748E+02  0.18547E+02 -0.37295E+02 -0.41404E+01  0.96567E-01  0.13286E+02      982.00
  0.70229E+00  0.61027E+02    0.37500E+00  0.37500E+00 -0.75000E+00  0.00000E+00  0.00000E+00  0.00000E+00    0.18801E+02  0.18537E+02 -0.37338E+02 -0.41158E+01  0.11943E+00  0.13375E+02      982.00
  0.72524E+00  0.61136E+02    0.38750E+00  0.38750E+00 -0.77500E+00  0.00000E+00  0.00000E+00  0.00000E+00    0.18850E+02  0.18529E+02 -0.37379E+02 -0.40892E+01  0.14678E+00  0.13461E+02      982.00
  0.74816E+00  0.61242E+02    0.40000E+00  0.40000E+00 -0.80000E+00  0.00000E+00  0.00000E+00  0.00000E+00    0.18896E+02  0.18522E+02 -0.37419E+02 -0.40601E+01  0.17825E+00  0.13546E+02      982.00
  0.77108E+00  0.61345E+02    0.41250E+00  0.41250E+00 -0.82500E+00  0.00000E+00  0.00000E+00  0.00000E+00    0.18940E+02  0.18518E+02 -0.37457E+02 -0.40285E+01  0.21370E+00  0.13631E+02      982.00
  0.79397E+00  0.61446E+02    0.42500E+00  0.42500E+00 -0.85000E+00  0.00000E+00  0.00000E+00  0.00000E+00    0.18980E+02  0.18515E+02 -0.37494E+02 -0.39939E+01  0.25310E+00  0.13714E+02      982.00
  0.81686E+00  0.61566E+02    0.43750E+00  0.43750E+00 -0.87500E+00  0.00000E+00  0.00000E+00  0.00000E+00    0.19015E+02  0.18522E+02 -0.37537E+02 -0.39596E+01  0.29729E+00  0.13815E+02      982.00
  0.83972E+00  0.61665E+02    0.45000E+00  0.45000E+00 -0.90000E+00  0.00000E+00  0.00000E+00  0.00000E+00    0.19050E+02  0.18522E+02 -0.37572E+02 -0.39196E+01  0.34354E+00  0.13900E+02      982.00
  0.86257E+00  0.61763E+02    0.46250E+00  0.46250E+00 -0.92500E+00  0.00000E+00  0.00000E+00  0.00000E+00    0.19084E+02  0.18524E+02 -0.37608E+02 -0.38758E+01  0.39374E+00  0.13985E+02      982.00
  0.88540E+00  0.61807E+02    0.47500E+00  0.47500E+00 -0.95000E+00  0.00000E+00  0.00000E+00  0.00000E+00    0.19101E+02  0.18515E+02 -0.37617E+02 -0.38100E+01  0.45091E+00  0.14046E+02      982.00
  0.90823E+00  0.61867E+02    0.48750E+00  0.48750E+00 -0.97500E+00  0.00000E+00  0.00000E+00  0.00000E+00    0.19111E+02  0.18518E+02 -0.37630E+02 -0.37525E+01  0.50606E+00  0.14122E+02      982.00
  0.93104E+00  0.61921E+02    0.50000E+00  0.50000E+00 -0.10000E+01  0.00000E+00  0.00000E+00  0.00000E+00    0.19122E+02  0.18520E+02 -0.37641E+02 -0.36863E+01  0.56770E+00  0.14192E+02      982.00
