          Evm          Svm            E11          E22          E33          E23          E13          E12         SDEV11       SDEV22       SDEV33       SDEV23       SDEV13       SDEV12      TEMP
  0.00000E+00  0.65399E+02    0.00000E+00  0.00000E+00  0.00000E+00  0.00000E+00  0.00000E+00  0.00000E+00    0.20106E+02  0.22050E+02 -0.42156E+02 -0.25418E+01 -0.43462E+01 -0.81558E+01      982.00
  0.24173E-01  0.65148E+02    0.12500E-01  0.12500E-01 -0.25000E-01  0.00000E+00  0.00000E+00  0.00000E+00    0.19920E+02  0.22158E+02 -0.42078E+02 -0.25770E+01 -0.41680E+01 -0.78481E+01      982.00
  0.48393E-01  0.64966E+02    0.25000E-01  0.25000E-01 -0.50000E-01  0.00000E+00  0.00000E+00  0.00000E+00    0.19817E+02  0.22227E+02 -0.42044E+02 -0.26548E+01 -0.40278E+01 -0.75064E+01      982.00
  0.72662E-01  0.64883E+02    0.37500E-01  0.37500E-01 -0.75000E-01  0.00000E+00  0.00000E+00  0.00000E+00    0.19763E+02  0.22294E+02 -0.42057E+02 -0.27934E+01 -0.39348E+01 -0.71948E+01      982.00
  0.96970E-01  0.64895E+02    0.50000E-01  0.50000E-01 -0.10000E+00  0.00000E+00  0.00000E+00  0.00000E+00    0.19745E+02  0.22364E+02 -0.42108E+02 -0.29577E+01 -0.38868E+01 -0.69564E+01      982.00
  0.12130E+00  0.64967E+02    0.62500E-01  0.62500E-01 -0.12500E+00  0.00000E+00  0.00000E+00  0.00000E+00    0.19737E+02  0.22442E+02 -0.42179E+02 -0.31216E+01 -0.38630E+01 -0.67884E+01      982.00
  0.14565E+00  0.65086E+02    0.75000E-01  0.75000E-01 -0.15000E+00  0.00000E+00  0.00000E+00  0.00000E+00    0.19744E+02  0.22522E+02 -0.42266E+02 -0.32586E+01 -0.38573E+01 -0.66959E+01      982.00
  0.17000E+00  0.65247E+02    0.87500E-01  0.87500E-01 -0.17500E+00  0.00000E+00  0.00000E+00  0.00000E+00    0.19752E+02  0.22616E+02 -0.42368E+02 -0.33730E+01 -0.38599E+01 -0.66651E+01      982.00
  0.19435E+00  0.65450E+02    0.10000E+00  0.10000E+00 -0.20000E+00  0.00000E+00  0.00000E+00  0.00000E+00    0.19760E+02  0.22728E+02 -0.42489E+02 -0.34664E+01 -0.38689E+01 -0.66896E+01      982.00
  0.21870E+00  0.65683E+02    0.11250E+00  0.11250E+00 -0.22500E+00  0.00000E+00  0.00000E+00  0.00000E+00    0.19772E+02  0.22852E+02 -0.42624E+02 -0.35352E+01 -0.38797E+01 -0.67490E+01      982.00
  0.24303E+00  0.65937E+02    0.12500E+00  0.12500E+00 -0.25000E+00  0.00000E+00  0.00000E+00  0.00000E+00    0.19783E+02  0.22987E+02 -0.42770E+02 -0.35852E+01 -0.38915E+01 -0.68346E+01      982.00
  0.26736E+00  0.66206E+02    0.13750E+00  0.13750E+00 -0.27500E+00  0.00000E+00  0.00000E+00  0.00000E+00    0.19794E+02  0.23130E+02 -0.42924E+02 -0.36198E+01 -0.39037E+01 -0.69372E+01      982.00
  0.29167E+00  0.66476E+02    0.15000E+00  0.15000E+00 -0.30000E+00  0.00000E+00  0.00000E+00  0.00000E+00    0.19792E+02  0.23284E+02 -0.43075E+02 -0.36438E+01 -0.39128E+01 -0.70530E+01      982.00
  0.31597E+00  0.66752E+02    0.16250E+00  0.16250E+00 -0.32500E+00  0.00000E+00  0.00000E+00  0.00000E+00    0.19798E+02  0.23435E+02 -0.43233E+02 -0.36559E+01 -0.39255E+01 -0.71689E+01      982.00
  0.34025E+00  0.67023E+02    0.17500E+00  0.17500E+00 -0.35000E+00  0.00000E+00  0.00000E+00  0.00000E+00    0.19801E+02  0.23585E+02 -0.43387E+02 -0.36603E+01 -0.39387E+01 -0.72842E+01      982.00
  0.36453E+00  0.67284E+02    0.18750E+00  0.18750E+00 -0.37500E+00  0.00000E+00  0.00000E+00  0.00000E+00    0.19802E+02  0.23733E+02 -0.43535E+02 -0.36588E+01 -0.39523E+01 -0.73963E+01      982.00
  0.38879E+00  0.67535E+02    0.20000E+00  0.20000E+00 -0.40000E+00  0.00000E+00  0.00000E+00  0.00000E+00    0.19788E+02  0.23887E+02 -0.43675E+02 -0.36544E+01 -0.39638E+01 -0.75109E+01      982.00
  0.41304E+00  0.67769E+02    0.21250E+00  0.21250E+00 -0.42500E+00  0.00000E+00  0.00000E+00  0.00000E+00    0.19780E+02  0.24028E+02 -0.43808E+02 -0.36449E+01 -0.39782E+01 -0.76108E+01      982.00
  0.43729E+00  0.67964E+02    0.22500E+00  0.22500E+00 -0.45000E+00  0.00000E+00  0.00000E+00  0.00000E+00    0.19768E+02  0.24150E+02 -0.43918E+02 -0.36320E+01 -0.39903E+01 -0.76945E+01      982.00
  0.46152E+00  0.68170E+02    0.23750E+00  0.23750E+00 -0.47500E+00  0.00000E+00  0.00000E+00  0.00000E+00    0.19754E+02  0.24280E+02 -0.44033E+02 -0.36185E+01 -0.40070E+01 -0.77819E+01      982.00
  0.48574E+00  0.68363E+02    0.25000E+00  0.25000E+00 -0.50000E+00  0.00000E+00  0.00000E+00  0.00000E+00    0.19723E+02  0.24416E+02 -0.44139E+02 -0.36036E+01 -0.40225E+01 -0.78690E+01      982.00
  0.50995E+00  0.68551E+02    0.26250E+00  0.26250E+00 -0.52500E+00  0.00000E+00  0.00000E+00  0.00000E+00    0.19701E+02  0.24544E+02 -0.44245E+02 -0.35844E+01 -0.40401E+01 -0.79460E+01      982.00
  0.53416E+00  0.68708E+02    0.27500E+00  0.27500E+00 -0.55000E+00  0.00000E+00  0.00000E+00  0.00000E+00    0.19673E+02  0.24659E+02 -0.44332E+02 -0.35666E+01 -0.40582E+01 -0.80119E+01      982.00
  0.55835E+00  0.68819E+02    0.28750E+00  0.28750E+00 -0.57500E+00  0.00000E+00  0.00000E+00  0.00000E+00    0.19644E+02  0.24749E+02 -0.44392E+02 -0.35525E+01 -0.40726E+01 -0.80583E+01      982.00
  0.58254E+00  0.68960E+02    0.30000E+00  0.30000E+00 -0.60000E+00  0.00000E+00  0.00000E+00  0.00000E+00    0.19595E+02  0.24873E+02 -0.44468E+02 -0.35300E+01 -0.40928E+01 -0.81189E+01      982.00
  0.60672E+00  0.69082E+02    0.31250E+00  0.31250E+00 -0.62500E+00  0.00000E+00  0.00000E+00  0.00000E+00    0.19556E+02  0.24978E+02 -0.44534E+02 -0.35099E+01 -0.41120E+01 -0.81673E+01      982.00
  0.63090E+00  0.69191E+02    0.32500E+00  0.32500E+00 -0.65000E+00  0.00000E+00  0.00000E+00  0.00000E+00    0.19514E+02  0.25079E+02 -0.44593E+02 -0.34890E+01 -0.41323E+01 -0.82106E+01      982.00
  0.65507E+00  0.69284E+02    0.33750E+00  0.33750E+00 -0.67500E+00  0.00000E+00  0.00000E+00  0.00000E+00    0.19466E+02  0.25175E+02 -0.44641E+02 -0.34680E+01 -0.41547E+01 -0.82491E+01      982.00
  0.67923E+00  0.69375E+02    0.35000E+00  0.35000E+00 -0.70000E+00  0.00000E+00  0.00000E+00  0.00000E+00    0.19416E+02  0.25272E+02 -0.44689E+02 -0.34457E+01 -0.41761E+01 -0.82835E+01      982.00
  0.70339E+00  0.69469E+02    0.36250E+00  0.36250E+00 -0.72500E+00  0.00000E+00  0.00000E+00  0.00000E+00    0.19331E+02  0.25404E+02 -0.44734E+02 -0.34092E+01 -0.42045E+01 -0.83218E+01      982.00
  0.72753E+00  0.69539E+02    0.37500E+00  0.37500E+00 -0.75000E+00  0.00000E+00  0.00000E+00  0.00000E+00    0.19271E+02  0.25498E+02 -0.44769E+02 -0.33843E+01 -0.42258E+01 -0.83452E+01      982.00
  0.75168E+00  0.69602E+02    0.38750E+00  0.38750E+00 -0.77500E+00  0.00000E+00  0.00000E+00  0.00000E+00    0.19209E+02  0.25591E+02 -0.44800E+02 -0.33593E+01 -0.42489E+01 -0.83650E+01      982.00
  0.77581E+00  0.69658E+02    0.40000E+00  0.40000E+00 -0.80000E+00  0.00000E+00  0.00000E+00  0.00000E+00    0.19145E+02  0.25683E+02 -0.44827E+02 -0.33336E+01 -0.42725E+01 -0.83811E+01      982.00
  0.79995E+00  0.69709E+02    0.41250E+00  0.41250E+00 -0.82500E+00  0.00000E+00  0.00000E+00  0.00000E+00    0.19077E+02  0.25774E+02 -0.44851E+02 -0.33073E+01 -0.42965E+01 -0.83934E+01      982.00
  0.82407E+00  0.69755E+02    0.42500E+00  0.42500E+00 -0.85000E+00  0.00000E+00  0.00000E+00  0.00000E+00    0.19006E+02  0.25866E+02 -0.44872E+02 -0.32804E+01 -0.43209E+01 -0.84020E+01      982.00
  0.84820E+00  0.69795E+02    0.43750E+00  0.43750E+00 -0.87500E+00  0.00000E+00  0.00000E+00  0.00000E+00    0.18932E+02  0.25957E+02 -0.44890E+02 -0.32528E+01 -0.43456E+01 -0.84070E+01      982.00
  0.87232E+00  0.69832E+02    0.45000E+00  0.45000E+00 -0.90000E+00  0.00000E+00  0.00000E+00  0.00000E+00    0.18856E+02  0.26049E+02 -0.44905E+02 -0.32246E+01 -0.43706E+01 -0.84083E+01      982.00
  0.89643E+00  0.69823E+02    0.46250E+00  0.46250E+00 -0.92500E+00  0.00000E+00  0.00000E+00  0.00000E+00    0.18804E+02  0.26092E+02 -0.44896E+02 -0.32033E+01 -0.43680E+01 -0.84101E+01      982.00
  0.92054E+00  0.69794E+02    0.47500E+00  0.47500E+00 -0.95000E+00  0.00000E+00  0.00000E+00  0.00000E+00    0.18704E+02  0.26164E+02 -0.44868E+02 -0.31789E+01 -0.43843E+01 -0.84041E+01      982.00
  0.94465E+00  0.69770E+02    0.48750E+00  0.48750E+00 -0.97500E+00  0.00000E+00  0.00000E+00  0.00000E+00    0.18594E+02  0.26258E+02 -0.44853E+02 -0.31222E+01 -0.43925E+01 -0.83703E+01      982.00
  0.96876E+00  0.69746E+02    0.50000E+00  0.50000E+00 -0.10000E+01  0.00000E+00  0.00000E+00  0.00000E+00    0.18501E+02  0.26333E+02 -0.44834E+02 -0.30813E+01 -0.43993E+01 -0.83505E+01      982.00
