          Evm          Svm            E11          E22          E33          E23          E13          E12         SDEV11       SDEV22       SDEV33       SDEV23       SDEV13       SDEV12      TEMP
  0.00000E+00  0.61578E+02    0.00000E+00  0.00000E+00  0.00000E+00  0.00000E+00  0.00000E+00  0.00000E+00    0.16343E+02  0.20613E+02 -0.36957E+02  0.49720E+01 -0.58736E+01  0.13259E+02      982.00
  0.22506E-01  0.61627E+02    0.12500E-01  0.12500E-01 -0.25000E-01  0.00000E+00  0.00000E+00  0.00000E+00    0.16367E+02  0.20755E+02 -0.37122E+02  0.50403E+01 -0.57296E+01  0.13015E+02      982.00
  0.45095E-01  0.61688E+02    0.25000E-01  0.25000E-01 -0.50000E-01  0.00000E+00  0.00000E+00  0.00000E+00    0.16399E+02  0.20880E+02 -0.37280E+02  0.50627E+01 -0.55745E+01  0.12822E+02      982.00
  0.67757E-01  0.61784E+02    0.37500E-01  0.37500E-01 -0.75000E-01  0.00000E+00  0.00000E+00  0.00000E+00    0.16426E+02  0.21018E+02 -0.37444E+02  0.50630E+01 -0.54206E+01  0.12673E+02      982.00
  0.90484E-01  0.61909E+02    0.50000E-01  0.50000E-01 -0.10000E+00  0.00000E+00  0.00000E+00  0.00000E+00    0.16446E+02  0.21165E+02 -0.37610E+02  0.50462E+01 -0.52718E+01  0.12563E+02      982.00
  0.11327E+00  0.62069E+02    0.62500E-01  0.62500E-01 -0.12500E+00  0.00000E+00  0.00000E+00  0.00000E+00    0.16475E+02  0.21311E+02 -0.37786E+02  0.50138E+01 -0.51353E+01  0.12490E+02      982.00
  0.13609E+00  0.62260E+02    0.75000E-01  0.75000E-01 -0.15000E+00  0.00000E+00  0.00000E+00  0.00000E+00    0.16512E+02  0.21455E+02 -0.37968E+02  0.49737E+01 -0.50118E+01  0.12448E+02      982.00
  0.15896E+00  0.62466E+02    0.87500E-01  0.87500E-01 -0.17500E+00  0.00000E+00  0.00000E+00  0.00000E+00    0.16549E+02  0.21598E+02 -0.38147E+02  0.49264E+01 -0.48970E+01  0.12435E+02      982.00
  0.18186E+00  0.62706E+02    0.10000E+00  0.10000E+00 -0.20000E+00  0.00000E+00  0.00000E+00  0.00000E+00    0.16608E+02  0.21733E+02 -0.38341E+02  0.48807E+01 -0.48005E+01  0.12439E+02      982.00
  0.20479E+00  0.62963E+02    0.11250E+00  0.11250E+00 -0.22500E+00  0.00000E+00  0.00000E+00  0.00000E+00    0.16678E+02  0.21860E+02 -0.38538E+02  0.48366E+01 -0.47174E+01  0.12457E+02      982.00
  0.22775E+00  0.63233E+02    0.12500E+00  0.12500E+00 -0.25000E+00  0.00000E+00  0.00000E+00  0.00000E+00    0.16760E+02  0.21979E+02 -0.38738E+02  0.47953E+01 -0.46467E+01  0.12487E+02      982.00
  0.25072E+00  0.63512E+02    0.13750E+00  0.13750E+00 -0.27500E+00  0.00000E+00  0.00000E+00  0.00000E+00    0.16852E+02  0.22088E+02 -0.38940E+02  0.47574E+01 -0.45874E+01  0.12524E+02      982.00
  0.27371E+00  0.63793E+02    0.15000E+00  0.15000E+00 -0.30000E+00  0.00000E+00  0.00000E+00  0.00000E+00    0.16950E+02  0.22186E+02 -0.39136E+02  0.47194E+01 -0.45338E+01  0.12575E+02      982.00
  0.29672E+00  0.64076E+02    0.16250E+00  0.16250E+00 -0.32500E+00  0.00000E+00  0.00000E+00  0.00000E+00    0.17060E+02  0.22275E+02 -0.39335E+02  0.46889E+01 -0.44945E+01  0.12617E+02      982.00
  0.31974E+00  0.64356E+02    0.17500E+00  0.17500E+00 -0.35000E+00  0.00000E+00  0.00000E+00  0.00000E+00    0.17176E+02  0.22354E+02 -0.39530E+02  0.46612E+01 -0.44629E+01  0.12659E+02      982.00
  0.34277E+00  0.64629E+02    0.18750E+00  0.18750E+00 -0.37500E+00  0.00000E+00  0.00000E+00  0.00000E+00    0.17296E+02  0.22424E+02 -0.39720E+02  0.46356E+01 -0.44378E+01  0.12699E+02      982.00
  0.36582E+00  0.64896E+02    0.20000E+00  0.20000E+00 -0.40000E+00  0.00000E+00  0.00000E+00  0.00000E+00    0.17416E+02  0.22492E+02 -0.39908E+02  0.46130E+01 -0.44202E+01  0.12731E+02      982.00
  0.38888E+00  0.65150E+02    0.21250E+00  0.21250E+00 -0.42500E+00  0.00000E+00  0.00000E+00  0.00000E+00    0.17540E+02  0.22545E+02 -0.40085E+02  0.45895E+01 -0.44040E+01  0.12767E+02      982.00
  0.41195E+00  0.65391E+02    0.22500E+00  0.22500E+00 -0.45000E+00  0.00000E+00  0.00000E+00  0.00000E+00    0.17665E+02  0.22590E+02 -0.40254E+02  0.45666E+01 -0.43911E+01  0.12799E+02      982.00
  0.43504E+00  0.65620E+02    0.23750E+00  0.23750E+00 -0.47500E+00  0.00000E+00  0.00000E+00  0.00000E+00    0.17789E+02  0.22627E+02 -0.40416E+02  0.45440E+01 -0.43807E+01  0.12828E+02      982.00
  0.45813E+00  0.65836E+02    0.25000E+00  0.25000E+00 -0.50000E+00  0.00000E+00  0.00000E+00  0.00000E+00    0.17912E+02  0.22657E+02 -0.40569E+02  0.45214E+01 -0.43721E+01  0.12853E+02      982.00
  0.48124E+00  0.66038E+02    0.26250E+00  0.26250E+00 -0.52500E+00  0.00000E+00  0.00000E+00  0.00000E+00    0.18034E+02  0.22680E+02 -0.40714E+02  0.44986E+01 -0.43649E+01  0.12875E+02      982.00
  0.50436E+00  0.66227E+02    0.27500E+00  0.27500E+00 -0.55000E+00  0.00000E+00  0.00000E+00  0.00000E+00    0.18153E+02  0.22697E+02 -0.40850E+02  0.44755E+01 -0.43585E+01  0.12894E+02      982.00
  0.52749E+00  0.66399E+02    0.28750E+00  0.28750E+00 -0.57500E+00  0.00000E+00  0.00000E+00  0.00000E+00    0.18275E+02  0.22700E+02 -0.40975E+02  0.44516E+01 -0.43525E+01  0.12913E+02      982.00
  0.55063E+00  0.66563E+02    0.30000E+00  0.30000E+00 -0.60000E+00  0.00000E+00  0.00000E+00  0.00000E+00    0.18389E+02  0.22707E+02 -0.41096E+02  0.44279E+01 -0.43471E+01  0.12926E+02      982.00
  0.57378E+00  0.66716E+02    0.31250E+00  0.31250E+00 -0.62500E+00  0.00000E+00  0.00000E+00  0.00000E+00    0.18497E+02  0.22712E+02 -0.41208E+02  0.44040E+01 -0.43419E+01  0.12937E+02      982.00
  0.59695E+00  0.66857E+02    0.32500E+00  0.32500E+00 -0.65000E+00  0.00000E+00  0.00000E+00  0.00000E+00    0.18601E+02  0.22713E+02 -0.41314E+02  0.43801E+01 -0.43368E+01  0.12946E+02      982.00
  0.62012E+00  0.66988E+02    0.33750E+00  0.33750E+00 -0.67500E+00  0.00000E+00  0.00000E+00  0.00000E+00    0.18700E+02  0.22712E+02 -0.41412E+02  0.43561E+01 -0.43317E+01  0.12953E+02      982.00
  0.64330E+00  0.67109E+02    0.35000E+00  0.35000E+00 -0.70000E+00  0.00000E+00  0.00000E+00  0.00000E+00    0.18796E+02  0.22709E+02 -0.41504E+02  0.43323E+01 -0.43265E+01  0.12959E+02      982.00
  0.66650E+00  0.67208E+02    0.36250E+00  0.36250E+00 -0.72500E+00  0.00000E+00  0.00000E+00  0.00000E+00    0.18889E+02  0.22691E+02 -0.41580E+02  0.43085E+01 -0.43231E+01  0.12967E+02      982.00
  0.68970E+00  0.67314E+02    0.37500E+00  0.37500E+00 -0.75000E+00  0.00000E+00  0.00000E+00  0.00000E+00    0.18976E+02  0.22685E+02 -0.41661E+02  0.42849E+01 -0.43178E+01  0.12970E+02      982.00
  0.71290E+00  0.67411E+02    0.38750E+00  0.38750E+00 -0.77500E+00  0.00000E+00  0.00000E+00  0.00000E+00    0.19058E+02  0.22678E+02 -0.41736E+02  0.42618E+01 -0.43125E+01  0.12973E+02      982.00
  0.73612E+00  0.67501E+02    0.40000E+00  0.40000E+00 -0.80000E+00  0.00000E+00  0.00000E+00  0.00000E+00    0.19136E+02  0.22670E+02 -0.41806E+02  0.42392E+01 -0.43071E+01  0.12974E+02      982.00
  0.75935E+00  0.67585E+02    0.41250E+00  0.41250E+00 -0.82500E+00  0.00000E+00  0.00000E+00  0.00000E+00    0.19210E+02  0.22662E+02 -0.41872E+02  0.42172E+01 -0.43017E+01  0.12975E+02      982.00
  0.78258E+00  0.67662E+02    0.42500E+00  0.42500E+00 -0.85000E+00  0.00000E+00  0.00000E+00  0.00000E+00    0.19280E+02  0.22653E+02 -0.41933E+02  0.41958E+01 -0.42964E+01  0.12976E+02      982.00
  0.80582E+00  0.67734E+02    0.43750E+00  0.43750E+00 -0.87500E+00  0.00000E+00  0.00000E+00  0.00000E+00    0.19346E+02  0.22644E+02 -0.41990E+02  0.41752E+01 -0.42911E+01  0.12976E+02      982.00
  0.82907E+00  0.67801E+02    0.45000E+00  0.45000E+00 -0.90000E+00  0.00000E+00  0.00000E+00  0.00000E+00    0.19419E+02  0.22624E+02 -0.42043E+02  0.41488E+01 -0.42842E+01  0.12980E+02      982.00
  0.85232E+00  0.67862E+02    0.46250E+00  0.46250E+00 -0.92500E+00  0.00000E+00  0.00000E+00  0.00000E+00    0.19468E+02  0.22624E+02 -0.42092E+02  0.41353E+01 -0.42812E+01  0.12975E+02      982.00
  0.87558E+00  0.67919E+02    0.47500E+00  0.47500E+00 -0.95000E+00  0.00000E+00  0.00000E+00  0.00000E+00    0.19532E+02  0.22605E+02 -0.42138E+02  0.41110E+01 -0.42744E+01  0.12978E+02      982.00
  0.89885E+00  0.67972E+02    0.48750E+00  0.48750E+00 -0.97500E+00  0.00000E+00  0.00000E+00  0.00000E+00    0.19585E+02  0.22596E+02 -0.42181E+02  0.40922E+01 -0.42698E+01  0.12978E+02      982.00
  0.92212E+00  0.68021E+02    0.50000E+00  0.50000E+00 -0.10000E+01  0.00000E+00  0.00000E+00  0.00000E+00    0.19633E+02  0.22587E+02 -0.42220E+02  0.40752E+01 -0.42654E+01  0.12977E+02      982.00
