          Evm          Svm            E11          E22          E33          E23          E13          E12         SDEV11       SDEV22       SDEV33       SDEV23       SDEV13       SDEV12      TEMP
  0.00000E+00  0.56944E+02    0.00000E+00  0.00000E+00  0.00000E+00  0.00000E+00  0.00000E+00  0.00000E+00    0.15178E+02  0.20670E+02 -0.35849E+02 -0.37783E+01  0.35280E+00  0.97504E+01      982.00
  0.23608E-01  0.57017E+02    0.12500E-01  0.12500E-01 -0.25000E-01  0.00000E+00  0.00000E+00  0.00000E+00    0.15675E+02  0.20180E+02 -0.35854E+02 -0.35813E+01  0.51516E+00  0.10066E+02      982.00
  0.47190E-01  0.57193E+02    0.25000E-01  0.25000E-01 -0.50000E-01  0.00000E+00  0.00000E+00  0.00000E+00    0.16218E+02  0.19686E+02 -0.35904E+02 -0.34006E+01  0.71069E+00  0.10414E+02      982.00
  0.70731E-01  0.57438E+02    0.37500E-01  0.37500E-01 -0.75000E-01  0.00000E+00  0.00000E+00  0.00000E+00    0.16765E+02  0.19210E+02 -0.35975E+02 -0.32399E+01  0.92154E+00  0.10779E+02      982.00
  0.94218E-01  0.57726E+02    0.50000E-01  0.50000E-01 -0.10000E+00  0.00000E+00  0.00000E+00  0.00000E+00    0.17264E+02  0.18791E+02 -0.36055E+02 -0.31082E+01  0.11264E+01  0.11148E+02      982.00
  0.11764E+00  0.58066E+02    0.62500E-01  0.62500E-01 -0.12500E+00  0.00000E+00  0.00000E+00  0.00000E+00    0.17698E+02  0.18455E+02 -0.36153E+02 -0.30037E+01  0.13137E+01  0.11520E+02      982.00
  0.14099E+00  0.58460E+02    0.75000E-01  0.75000E-01 -0.15000E+00  0.00000E+00  0.00000E+00  0.00000E+00    0.18064E+02  0.18211E+02 -0.36275E+02 -0.29233E+01  0.14757E+01  0.11899E+02      982.00
  0.16426E+00  0.58878E+02    0.87500E-01  0.87500E-01 -0.17500E+00  0.00000E+00  0.00000E+00  0.00000E+00    0.18372E+02  0.18031E+02 -0.36403E+02 -0.28549E+01  0.16186E+01  0.12281E+02      982.00
  0.18744E+00  0.59322E+02    0.10000E+00  0.10000E+00 -0.20000E+00  0.00000E+00  0.00000E+00  0.00000E+00    0.18631E+02  0.17914E+02 -0.36545E+02 -0.27990E+01  0.17392E+01  0.12664E+02      982.00
  0.21054E+00  0.59779E+02    0.11250E+00  0.11250E+00 -0.22500E+00  0.00000E+00  0.00000E+00  0.00000E+00    0.18849E+02  0.17848E+02 -0.36696E+02 -0.27524E+01  0.18412E+01  0.13039E+02      982.00
  0.23356E+00  0.60224E+02    0.12500E+00  0.12500E+00 -0.25000E+00  0.00000E+00  0.00000E+00  0.00000E+00    0.19023E+02  0.17818E+02 -0.36841E+02 -0.27154E+01  0.19211E+01  0.13402E+02      982.00
  0.25650E+00  0.60656E+02    0.13750E+00  0.13750E+00 -0.27500E+00  0.00000E+00  0.00000E+00  0.00000E+00    0.19172E+02  0.17810E+02 -0.36982E+02 -0.26816E+01  0.19907E+01  0.13747E+02      982.00
  0.27937E+00  0.61072E+02    0.15000E+00  0.15000E+00 -0.30000E+00  0.00000E+00  0.00000E+00  0.00000E+00    0.19299E+02  0.17820E+02 -0.37119E+02 -0.26560E+01  0.20467E+01  0.14075E+02      982.00
  0.30216E+00  0.61462E+02    0.16250E+00  0.16250E+00 -0.32500E+00  0.00000E+00  0.00000E+00  0.00000E+00    0.19403E+02  0.17838E+02 -0.37241E+02 -0.26339E+01  0.20892E+01  0.14391E+02      982.00
  0.32488E+00  0.61820E+02    0.17500E+00  0.17500E+00 -0.35000E+00  0.00000E+00  0.00000E+00  0.00000E+00    0.19496E+02  0.17857E+02 -0.37353E+02 -0.26080E+01  0.21284E+01  0.14677E+02      982.00
  0.34754E+00  0.62165E+02    0.18750E+00  0.18750E+00 -0.37500E+00  0.00000E+00  0.00000E+00  0.00000E+00    0.19578E+02  0.17881E+02 -0.37459E+02 -0.25914E+01  0.21557E+01  0.14957E+02      982.00
  0.37014E+00  0.62478E+02    0.20000E+00  0.20000E+00 -0.40000E+00  0.00000E+00  0.00000E+00  0.00000E+00    0.19649E+02  0.17901E+02 -0.37550E+02 -0.25767E+01  0.21770E+01  0.15215E+02      982.00
  0.39268E+00  0.62764E+02    0.21250E+00  0.21250E+00 -0.42500E+00  0.00000E+00  0.00000E+00  0.00000E+00    0.19719E+02  0.17915E+02 -0.37634E+02 -0.25549E+01  0.21963E+01  0.15449E+02      982.00
  0.41516E+00  0.63033E+02    0.22500E+00  0.22500E+00 -0.45000E+00  0.00000E+00  0.00000E+00  0.00000E+00    0.19782E+02  0.17928E+02 -0.37710E+02 -0.25425E+01  0.22073E+01  0.15673E+02      982.00
  0.43760E+00  0.63272E+02    0.23750E+00  0.23750E+00 -0.47500E+00  0.00000E+00  0.00000E+00  0.00000E+00    0.19843E+02  0.17930E+02 -0.37772E+02 -0.25213E+01  0.22157E+01  0.15881E+02      982.00
  0.45998E+00  0.63493E+02    0.25000E+00  0.25000E+00 -0.50000E+00  0.00000E+00  0.00000E+00  0.00000E+00    0.19894E+02  0.17938E+02 -0.37832E+02 -0.25255E+01  0.22171E+01  0.16066E+02      982.00
  0.48233E+00  0.63694E+02    0.26250E+00  0.26250E+00 -0.52500E+00  0.00000E+00  0.00000E+00  0.00000E+00    0.19946E+02  0.17936E+02 -0.37882E+02 -0.25150E+01  0.22152E+01  0.16242E+02      982.00
  0.50463E+00  0.63863E+02    0.27500E+00  0.27500E+00 -0.55000E+00  0.00000E+00  0.00000E+00  0.00000E+00    0.19996E+02  0.17929E+02 -0.37925E+02 -0.24968E+01  0.22085E+01  0.16389E+02      982.00
  0.52690E+00  0.64029E+02    0.28750E+00  0.28750E+00 -0.57500E+00  0.00000E+00  0.00000E+00  0.00000E+00    0.20044E+02  0.17920E+02 -0.37965E+02 -0.24879E+01  0.21988E+01  0.16536E+02      982.00
  0.54913E+00  0.64181E+02    0.30000E+00  0.30000E+00 -0.60000E+00  0.00000E+00  0.00000E+00  0.00000E+00    0.20094E+02  0.17906E+02 -0.38000E+02 -0.24694E+01  0.21803E+01  0.16674E+02      982.00
  0.57134E+00  0.64328E+02    0.31250E+00  0.31250E+00 -0.62500E+00  0.00000E+00  0.00000E+00  0.00000E+00    0.20142E+02  0.17894E+02 -0.38037E+02 -0.24621E+01  0.21634E+01  0.16802E+02      982.00
  0.59351E+00  0.64475E+02    0.32500E+00  0.32500E+00 -0.65000E+00  0.00000E+00  0.00000E+00  0.00000E+00    0.20192E+02  0.17876E+02 -0.38068E+02 -0.24562E+01  0.21421E+01  0.16935E+02      982.00
  0.61565E+00  0.64585E+02    0.33750E+00  0.33750E+00 -0.67500E+00  0.00000E+00  0.00000E+00  0.00000E+00    0.20233E+02  0.17858E+02 -0.38091E+02 -0.24487E+01  0.21190E+01  0.17038E+02      982.00
  0.63777E+00  0.64680E+02    0.35000E+00  0.35000E+00 -0.70000E+00  0.00000E+00  0.00000E+00  0.00000E+00    0.20268E+02  0.17845E+02 -0.38113E+02 -0.24520E+01  0.21084E+01  0.17120E+02      982.00
  0.65987E+00  0.64782E+02    0.36250E+00  0.36250E+00 -0.72500E+00  0.00000E+00  0.00000E+00  0.00000E+00    0.20311E+02  0.17826E+02 -0.38137E+02 -0.24437E+01  0.20849E+01  0.17211E+02      982.00
  0.68194E+00  0.64870E+02    0.37500E+00  0.37500E+00 -0.75000E+00  0.00000E+00  0.00000E+00  0.00000E+00    0.20352E+02  0.17803E+02 -0.38156E+02 -0.24359E+01  0.20597E+01  0.17292E+02      982.00
  0.70400E+00  0.64957E+02    0.38750E+00  0.38750E+00 -0.77500E+00  0.00000E+00  0.00000E+00  0.00000E+00    0.20394E+02  0.17783E+02 -0.38177E+02 -0.24271E+01  0.20341E+01  0.17368E+02      982.00
  0.72604E+00  0.65028E+02    0.40000E+00  0.40000E+00 -0.80000E+00  0.00000E+00  0.00000E+00  0.00000E+00    0.20433E+02  0.17758E+02 -0.38190E+02 -0.24186E+01  0.20084E+01  0.17436E+02      982.00
  0.74806E+00  0.65080E+02    0.41250E+00  0.41250E+00 -0.82500E+00  0.00000E+00  0.00000E+00  0.00000E+00    0.20468E+02  0.17735E+02 -0.38203E+02 -0.24054E+01  0.19735E+01  0.17482E+02      982.00
  0.77008E+00  0.65144E+02    0.42500E+00  0.42500E+00 -0.85000E+00  0.00000E+00  0.00000E+00  0.00000E+00    0.20507E+02  0.17711E+02 -0.38218E+02 -0.23982E+01  0.19476E+01  0.17540E+02      982.00
  0.79208E+00  0.65208E+02    0.43750E+00  0.43750E+00 -0.87500E+00  0.00000E+00  0.00000E+00  0.00000E+00    0.20546E+02  0.17687E+02 -0.38233E+02 -0.23908E+01  0.19223E+01  0.17595E+02      982.00
  0.81406E+00  0.65280E+02    0.45000E+00  0.45000E+00 -0.90000E+00  0.00000E+00  0.00000E+00  0.00000E+00    0.20590E+02  0.17660E+02 -0.38250E+02 -0.23872E+01  0.19080E+01  0.17656E+02      982.00
  0.83604E+00  0.65318E+02    0.46250E+00  0.46250E+00 -0.92500E+00  0.00000E+00  0.00000E+00  0.00000E+00    0.20624E+02  0.17637E+02 -0.38261E+02 -0.23762E+01  0.18768E+01  0.17687E+02      982.00
  0.85800E+00  0.65369E+02    0.47500E+00  0.47500E+00 -0.95000E+00  0.00000E+00  0.00000E+00  0.00000E+00    0.20662E+02  0.17613E+02 -0.38275E+02 -0.23697E+01  0.18541E+01  0.17727E+02      982.00
  0.87996E+00  0.65422E+02    0.48750E+00  0.48750E+00 -0.97500E+00  0.00000E+00  0.00000E+00  0.00000E+00    0.20702E+02  0.17583E+02 -0.38285E+02 -0.23667E+01  0.18411E+01  0.17775E+02      982.00
  0.90190E+00  0.65450E+02    0.50000E+00  0.50000E+00 -0.10000E+01  0.00000E+00  0.00000E+00  0.00000E+00    0.20734E+02  0.17560E+02 -0.38294E+02 -0.23559E+01  0.18144E+01  0.17797E+02      982.00
