          Evm          Svm            E11          E22          E33          E23          E13          E12         SDEV11       SDEV22       SDEV33       SDEV23       SDEV13       SDEV12      TEMP
  0.00000E+00  0.63657E+02    0.00000E+00  0.00000E+00  0.00000E+00  0.00000E+00  0.00000E+00  0.00000E+00    0.18418E+02  0.22594E+02 -0.41012E+02  0.28881E+01  0.51053E+01 -0.71050E+01      982.00
  0.24160E-01  0.63585E+02    0.12500E-01  0.12500E-01 -0.25000E-01  0.00000E+00  0.00000E+00  0.00000E+00    0.18218E+02  0.22816E+02 -0.41034E+02  0.28408E+01  0.48419E+01 -0.69313E+01      982.00
  0.48360E-01  0.63415E+02    0.25000E-01  0.25000E-01 -0.50000E-01  0.00000E+00  0.00000E+00  0.00000E+00    0.18099E+02  0.22902E+02 -0.41002E+02  0.28150E+01  0.45796E+01 -0.67053E+01      982.00
  0.72606E-01  0.63298E+02    0.37500E-01  0.37500E-01 -0.75000E-01  0.00000E+00  0.00000E+00  0.00000E+00    0.17996E+02  0.22996E+02 -0.40992E+02  0.29145E+01  0.42988E+01 -0.64841E+01      982.00
  0.96892E-01  0.63285E+02    0.50000E-01  0.50000E-01 -0.10000E+00  0.00000E+00  0.00000E+00  0.00000E+00    0.17906E+02  0.23124E+02 -0.41029E+02  0.31066E+01  0.40420E+01 -0.62981E+01      982.00
  0.12120E+00  0.63356E+02    0.62500E-01  0.62500E-01 -0.12500E+00  0.00000E+00  0.00000E+00  0.00000E+00    0.17832E+02  0.23270E+02 -0.41101E+02  0.33263E+01  0.38311E+01 -0.61535E+01      982.00
  0.14553E+00  0.63489E+02    0.75000E-01  0.75000E-01 -0.15000E+00  0.00000E+00  0.00000E+00  0.00000E+00    0.17758E+02  0.23441E+02 -0.41199E+02  0.35365E+01  0.36599E+01 -0.60514E+01      982.00
  0.16987E+00  0.63670E+02    0.87500E-01  0.87500E-01 -0.17500E+00  0.00000E+00  0.00000E+00  0.00000E+00    0.17692E+02  0.23626E+02 -0.41318E+02  0.37160E+01  0.35276E+01 -0.59877E+01      982.00
  0.19420E+00  0.63891E+02    0.10000E+00  0.10000E+00 -0.20000E+00  0.00000E+00  0.00000E+00  0.00000E+00    0.17615E+02  0.23840E+02 -0.41455E+02  0.38639E+01  0.34181E+01 -0.59578E+01      982.00
  0.21853E+00  0.64140E+02    0.11250E+00  0.11250E+00 -0.22500E+00  0.00000E+00  0.00000E+00  0.00000E+00    0.17538E+02  0.24068E+02 -0.41606E+02  0.39779E+01  0.33324E+01 -0.59545E+01      982.00
  0.24286E+00  0.64410E+02    0.12500E+00  0.12500E+00 -0.25000E+00  0.00000E+00  0.00000E+00  0.00000E+00    0.17456E+02  0.24310E+02 -0.41767E+02  0.40638E+01  0.32624E+01 -0.59715E+01      982.00
  0.26717E+00  0.64697E+02    0.13750E+00  0.13750E+00 -0.27500E+00  0.00000E+00  0.00000E+00  0.00000E+00    0.17366E+02  0.24570E+02 -0.41935E+02  0.41274E+01  0.32009E+01 -0.60020E+01      982.00
  0.29148E+00  0.64987E+02    0.15000E+00  0.15000E+00 -0.30000E+00  0.00000E+00  0.00000E+00  0.00000E+00    0.17279E+02  0.24827E+02 -0.42106E+02  0.41705E+01  0.31537E+01 -0.60420E+01      982.00
  0.31578E+00  0.65277E+02    0.16250E+00  0.16250E+00 -0.32500E+00  0.00000E+00  0.00000E+00  0.00000E+00    0.17192E+02  0.25084E+02 -0.42276E+02  0.41984E+01  0.31151E+01 -0.60865E+01      982.00
  0.34006E+00  0.65564E+02    0.17500E+00  0.17500E+00 -0.35000E+00  0.00000E+00  0.00000E+00  0.00000E+00    0.17100E+02  0.25343E+02 -0.42443E+02  0.42154E+01  0.30788E+01 -0.61311E+01      982.00
  0.36434E+00  0.65839E+02    0.18750E+00  0.18750E+00 -0.37500E+00  0.00000E+00  0.00000E+00  0.00000E+00    0.17016E+02  0.25587E+02 -0.42603E+02  0.42222E+01  0.30537E+01 -0.61761E+01      982.00
  0.38861E+00  0.66101E+02    0.20000E+00  0.20000E+00 -0.40000E+00  0.00000E+00  0.00000E+00  0.00000E+00    0.16928E+02  0.25827E+02 -0.42755E+02  0.42233E+01  0.30277E+01 -0.62171E+01      982.00
  0.41286E+00  0.66350E+02    0.21250E+00  0.21250E+00 -0.42500E+00  0.00000E+00  0.00000E+00  0.00000E+00    0.16850E+02  0.26049E+02 -0.42899E+02  0.42180E+01  0.30124E+01 -0.62565E+01      982.00
  0.43711E+00  0.66582E+02    0.22500E+00  0.22500E+00 -0.45000E+00  0.00000E+00  0.00000E+00  0.00000E+00    0.16774E+02  0.26260E+02 -0.43034E+02  0.42089E+01  0.30007E+01 -0.62920E+01      982.00
  0.46134E+00  0.66797E+02    0.23750E+00  0.23750E+00 -0.47500E+00  0.00000E+00  0.00000E+00  0.00000E+00    0.16694E+02  0.26463E+02 -0.43157E+02  0.41991E+01  0.29857E+01 -0.63221E+01      982.00
  0.48557E+00  0.66997E+02    0.25000E+00  0.25000E+00 -0.50000E+00  0.00000E+00  0.00000E+00  0.00000E+00    0.16623E+02  0.26649E+02 -0.43272E+02  0.41856E+01  0.29799E+01 -0.63496E+01      982.00
  0.50979E+00  0.67182E+02    0.26250E+00  0.26250E+00 -0.52500E+00  0.00000E+00  0.00000E+00  0.00000E+00    0.16552E+02  0.26826E+02 -0.43378E+02  0.41715E+01  0.29699E+01 -0.63719E+01      982.00
  0.53401E+00  0.67352E+02    0.27500E+00  0.27500E+00 -0.55000E+00  0.00000E+00  0.00000E+00  0.00000E+00    0.16486E+02  0.26989E+02 -0.43475E+02  0.41563E+01  0.29686E+01 -0.63919E+01      982.00
  0.55821E+00  0.67507E+02    0.28750E+00  0.28750E+00 -0.57500E+00  0.00000E+00  0.00000E+00  0.00000E+00    0.16422E+02  0.27141E+02 -0.43563E+02  0.41408E+01  0.29689E+01 -0.64084E+01      982.00
  0.58241E+00  0.67642E+02    0.30000E+00  0.30000E+00 -0.60000E+00  0.00000E+00  0.00000E+00  0.00000E+00    0.16353E+02  0.27285E+02 -0.43638E+02  0.41288E+01  0.29616E+01 -0.64201E+01      982.00
  0.60660E+00  0.67773E+02    0.31250E+00  0.31250E+00 -0.62500E+00  0.00000E+00  0.00000E+00  0.00000E+00    0.16293E+02  0.27419E+02 -0.43712E+02  0.41135E+01  0.29645E+01 -0.64304E+01      982.00
  0.63079E+00  0.67892E+02    0.32500E+00  0.32500E+00 -0.65000E+00  0.00000E+00  0.00000E+00  0.00000E+00    0.16234E+02  0.27544E+02 -0.43778E+02  0.40984E+01  0.29687E+01 -0.64380E+01      982.00
  0.65497E+00  0.67996E+02    0.33750E+00  0.33750E+00 -0.67500E+00  0.00000E+00  0.00000E+00  0.00000E+00    0.16171E+02  0.27664E+02 -0.43835E+02  0.40875E+01  0.29663E+01 -0.64414E+01      982.00
  0.67915E+00  0.68093E+02    0.35000E+00  0.35000E+00 -0.70000E+00  0.00000E+00  0.00000E+00  0.00000E+00    0.16120E+02  0.27768E+02 -0.43889E+02  0.40733E+01  0.29711E+01 -0.64455E+01      982.00
  0.70332E+00  0.68182E+02    0.36250E+00  0.36250E+00 -0.72500E+00  0.00000E+00  0.00000E+00  0.00000E+00    0.16066E+02  0.27871E+02 -0.43937E+02  0.40600E+01  0.29779E+01 -0.64462E+01      982.00
  0.72748E+00  0.68256E+02    0.37500E+00  0.37500E+00 -0.75000E+00  0.00000E+00  0.00000E+00  0.00000E+00    0.16009E+02  0.27967E+02 -0.43976E+02  0.40519E+01  0.29778E+01 -0.64409E+01      982.00
  0.75164E+00  0.68331E+02    0.38750E+00  0.38750E+00 -0.77500E+00  0.00000E+00  0.00000E+00  0.00000E+00    0.15957E+02  0.28059E+02 -0.44017E+02  0.40397E+01  0.29857E+01 -0.64378E+01      982.00
  0.77580E+00  0.68398E+02    0.40000E+00  0.40000E+00 -0.80000E+00  0.00000E+00  0.00000E+00  0.00000E+00    0.15895E+02  0.28156E+02 -0.44051E+02  0.40284E+01  0.29903E+01 -0.64264E+01      982.00
  0.79995E+00  0.68459E+02    0.41250E+00  0.41250E+00 -0.82500E+00  0.00000E+00  0.00000E+00  0.00000E+00    0.15847E+02  0.28236E+02 -0.44083E+02  0.40175E+01  0.29990E+01 -0.64204E+01      982.00
  0.82410E+00  0.68514E+02    0.42500E+00  0.42500E+00 -0.85000E+00  0.00000E+00  0.00000E+00  0.00000E+00    0.15801E+02  0.28310E+02 -0.44111E+02  0.40075E+01  0.30089E+01 -0.64126E+01      982.00
  0.84824E+00  0.68562E+02    0.43750E+00  0.43750E+00 -0.87500E+00  0.00000E+00  0.00000E+00  0.00000E+00    0.15756E+02  0.28380E+02 -0.44136E+02  0.39983E+01  0.30197E+01 -0.64036E+01      982.00
  0.87238E+00  0.68606E+02    0.45000E+00  0.45000E+00 -0.90000E+00  0.00000E+00  0.00000E+00  0.00000E+00    0.15686E+02  0.28469E+02 -0.44155E+02  0.39839E+01  0.30323E+01 -0.63839E+01      982.00
  0.89652E+00  0.68584E+02    0.46250E+00  0.46250E+00 -0.92500E+00  0.00000E+00  0.00000E+00  0.00000E+00    0.15648E+02  0.28494E+02 -0.44143E+02  0.39511E+01  0.30289E+01 -0.63613E+01      982.00
  0.92065E+00  0.68561E+02    0.47500E+00  0.47500E+00 -0.95000E+00  0.00000E+00  0.00000E+00  0.00000E+00    0.15607E+02  0.28520E+02 -0.44127E+02  0.39309E+01  0.30293E+01 -0.63373E+01      982.00
  0.94479E+00  0.68545E+02    0.48750E+00  0.48750E+00 -0.97500E+00  0.00000E+00  0.00000E+00  0.00000E+00    0.15585E+02  0.28531E+02 -0.44116E+02  0.39221E+01  0.30320E+01 -0.63217E+01      982.00
  0.96892E+00  0.68518E+02    0.50000E+00  0.50000E+00 -0.10000E+01  0.00000E+00  0.00000E+00  0.00000E+00    0.15530E+02  0.28568E+02 -0.44098E+02  0.38951E+01  0.30321E+01 -0.62895E+01      982.00
