          Evm          Svm            E11          E22          E33          E23          E13          E12         SDEV11       SDEV22       SDEV33       SDEV23       SDEV13       SDEV12      TEMP
  0.00000E+00  0.61545E+02    0.00000E+00  0.00000E+00  0.00000E+00  0.00000E+00  0.00000E+00  0.00000E+00    0.15111E+02  0.23437E+02 -0.38548E+02  0.31710E+01 -0.66594E+01  0.87399E+01      982.00
  0.23488E-01  0.61566E+02    0.12500E-01  0.12500E-01 -0.25000E-01  0.00000E+00  0.00000E+00  0.00000E+00    0.14810E+02  0.23816E+02 -0.38626E+02  0.31255E+01 -0.63774E+01  0.85910E+01      982.00
  0.47015E-01  0.61609E+02    0.25000E-01  0.25000E-01 -0.50000E-01  0.00000E+00  0.00000E+00  0.00000E+00    0.14579E+02  0.24134E+02 -0.38714E+02  0.31741E+01 -0.60557E+01  0.84610E+01      982.00
  0.70579E-01  0.61687E+02    0.37500E-01  0.37500E-01 -0.75000E-01  0.00000E+00  0.00000E+00  0.00000E+00    0.14374E+02  0.24440E+02 -0.38813E+02  0.32575E+01 -0.57320E+01  0.83532E+01      982.00
  0.94174E-01  0.61800E+02    0.50000E-01  0.50000E-01 -0.10000E+00  0.00000E+00  0.00000E+00  0.00000E+00    0.14181E+02  0.24741E+02 -0.38922E+02  0.33471E+01 -0.54284E+01  0.82677E+01      982.00
  0.11779E+00  0.61948E+02    0.62500E-01  0.62500E-01 -0.12500E+00  0.00000E+00  0.00000E+00  0.00000E+00    0.14000E+02  0.25039E+02 -0.39039E+02  0.34314E+01 -0.51545E+01  0.82059E+01      982.00
  0.14142E+00  0.62131E+02    0.75000E-01  0.75000E-01 -0.15000E+00  0.00000E+00  0.00000E+00  0.00000E+00    0.13829E+02  0.25337E+02 -0.39166E+02  0.35063E+01 -0.49143E+01  0.81663E+01      982.00
  0.16506E+00  0.62344E+02    0.87500E-01  0.87500E-01 -0.17500E+00  0.00000E+00  0.00000E+00  0.00000E+00    0.13683E+02  0.25621E+02 -0.39304E+02  0.35745E+01 -0.47046E+01  0.81533E+01      982.00
  0.18870E+00  0.62587E+02    0.10000E+00  0.10000E+00 -0.20000E+00  0.00000E+00  0.00000E+00  0.00000E+00    0.13557E+02  0.25894E+02 -0.39452E+02  0.36371E+01 -0.45242E+01  0.81630E+01      982.00
  0.21234E+00  0.62854E+02    0.11250E+00  0.11250E+00 -0.22500E+00  0.00000E+00  0.00000E+00  0.00000E+00    0.13446E+02  0.26162E+02 -0.39608E+02  0.36947E+01 -0.43706E+01  0.81901E+01      982.00
  0.23597E+00  0.63138E+02    0.12500E+00  0.12500E+00 -0.25000E+00  0.00000E+00  0.00000E+00  0.00000E+00    0.13354E+02  0.26417E+02 -0.39771E+02  0.37497E+01 -0.42392E+01  0.82345E+01      982.00
  0.25959E+00  0.63441E+02    0.13750E+00  0.13750E+00 -0.27500E+00  0.00000E+00  0.00000E+00  0.00000E+00    0.13293E+02  0.26650E+02 -0.39943E+02  0.38089E+01 -0.41275E+01  0.82979E+01      982.00
  0.28321E+00  0.63739E+02    0.15000E+00  0.15000E+00 -0.30000E+00  0.00000E+00  0.00000E+00  0.00000E+00    0.13238E+02  0.26871E+02 -0.40109E+02  0.38622E+01 -0.40311E+01  0.83686E+01      982.00
  0.30680E+00  0.64035E+02    0.16250E+00  0.16250E+00 -0.32500E+00  0.00000E+00  0.00000E+00  0.00000E+00    0.13199E+02  0.27074E+02 -0.40272E+02  0.39150E+01 -0.39481E+01  0.84502E+01      982.00
  0.33039E+00  0.64342E+02    0.17500E+00  0.17500E+00 -0.35000E+00  0.00000E+00  0.00000E+00  0.00000E+00    0.13185E+02  0.27256E+02 -0.40441E+02  0.39740E+01 -0.38790E+01  0.85448E+01      982.00
  0.35396E+00  0.64633E+02    0.18750E+00  0.18750E+00 -0.37500E+00  0.00000E+00  0.00000E+00  0.00000E+00    0.13179E+02  0.27420E+02 -0.40599E+02  0.40292E+01 -0.38174E+01  0.86464E+01      982.00
  0.37751E+00  0.64923E+02    0.20000E+00  0.20000E+00 -0.40000E+00  0.00000E+00  0.00000E+00  0.00000E+00    0.13187E+02  0.27568E+02 -0.40755E+02  0.40854E+01 -0.37623E+01  0.87605E+01      982.00
  0.40105E+00  0.65218E+02    0.21250E+00  0.21250E+00 -0.42500E+00  0.00000E+00  0.00000E+00  0.00000E+00    0.13216E+02  0.27697E+02 -0.40913E+02  0.41436E+01 -0.37109E+01  0.88912E+01      982.00
  0.42458E+00  0.65477E+02    0.22500E+00  0.22500E+00 -0.45000E+00  0.00000E+00  0.00000E+00  0.00000E+00    0.13256E+02  0.27796E+02 -0.41052E+02  0.41984E+01 -0.36756E+01  0.90092E+01      982.00
  0.44809E+00  0.65679E+02    0.23750E+00  0.23750E+00 -0.47500E+00  0.00000E+00  0.00000E+00  0.00000E+00    0.13294E+02  0.27866E+02 -0.41160E+02  0.42433E+01 -0.36560E+01  0.91003E+01      982.00
  0.47159E+00  0.65929E+02    0.25000E+00  0.25000E+00 -0.50000E+00  0.00000E+00  0.00000E+00  0.00000E+00    0.13347E+02  0.27945E+02 -0.41292E+02  0.42940E+01 -0.36383E+01  0.92272E+01      982.00
  0.49508E+00  0.66141E+02    0.26250E+00  0.26250E+00 -0.52500E+00  0.00000E+00  0.00000E+00  0.00000E+00    0.13408E+02  0.27994E+02 -0.41402E+02  0.43343E+01 -0.36229E+01  0.93564E+01      982.00
  0.51855E+00  0.66341E+02    0.27500E+00  0.27500E+00 -0.55000E+00  0.00000E+00  0.00000E+00  0.00000E+00    0.13481E+02  0.28024E+02 -0.41504E+02  0.43680E+01 -0.36146E+01  0.94894E+01      982.00
  0.54201E+00  0.66519E+02    0.28750E+00  0.28750E+00 -0.57500E+00  0.00000E+00  0.00000E+00  0.00000E+00    0.13561E+02  0.28034E+02 -0.41594E+02  0.43945E+01 -0.36134E+01  0.96256E+01      982.00
  0.56546E+00  0.66681E+02    0.30000E+00  0.30000E+00 -0.60000E+00  0.00000E+00  0.00000E+00  0.00000E+00    0.13650E+02  0.28025E+02 -0.41675E+02  0.44118E+01 -0.36185E+01  0.97637E+01      982.00
  0.58890E+00  0.66829E+02    0.31250E+00  0.31250E+00 -0.62500E+00  0.00000E+00  0.00000E+00  0.00000E+00    0.13750E+02  0.27998E+02 -0.41747E+02  0.44209E+01 -0.36310E+01  0.99043E+01      982.00
  0.61232E+00  0.66963E+02    0.32500E+00  0.32500E+00 -0.65000E+00  0.00000E+00  0.00000E+00  0.00000E+00    0.13859E+02  0.27953E+02 -0.41813E+02  0.44210E+01 -0.36499E+01  0.10046E+02      982.00
  0.63574E+00  0.67084E+02    0.33750E+00  0.33750E+00 -0.67500E+00  0.00000E+00  0.00000E+00  0.00000E+00    0.13978E+02  0.27893E+02 -0.41871E+02  0.44124E+01 -0.36745E+01  0.10188E+02      982.00
  0.65914E+00  0.67194E+02    0.35000E+00  0.35000E+00 -0.70000E+00  0.00000E+00  0.00000E+00  0.00000E+00    0.14106E+02  0.27819E+02 -0.41925E+02  0.43957E+01 -0.37040E+01  0.10329E+02      982.00
  0.68254E+00  0.67294E+02    0.36250E+00  0.36250E+00 -0.72500E+00  0.00000E+00  0.00000E+00  0.00000E+00    0.14241E+02  0.27732E+02 -0.41974E+02  0.43720E+01 -0.37373E+01  0.10467E+02      982.00
  0.70593E+00  0.67386E+02    0.37500E+00  0.37500E+00 -0.75000E+00  0.00000E+00  0.00000E+00  0.00000E+00    0.14383E+02  0.27635E+02 -0.42019E+02  0.43425E+01 -0.37732E+01  0.10603E+02      982.00
  0.72931E+00  0.67470E+02    0.38750E+00  0.38750E+00 -0.77500E+00  0.00000E+00  0.00000E+00  0.00000E+00    0.14530E+02  0.27530E+02 -0.42061E+02  0.43086E+01 -0.38108E+01  0.10735E+02      982.00
  0.75269E+00  0.67548E+02    0.40000E+00  0.40000E+00 -0.80000E+00  0.00000E+00  0.00000E+00  0.00000E+00    0.14681E+02  0.27419E+02 -0.42100E+02  0.42717E+01 -0.38488E+01  0.10861E+02      982.00
  0.77606E+00  0.67620E+02    0.41250E+00  0.41250E+00 -0.82500E+00  0.00000E+00  0.00000E+00  0.00000E+00    0.14834E+02  0.27303E+02 -0.42137E+02  0.42330E+01 -0.38865E+01  0.10982E+02      982.00
  0.79943E+00  0.67675E+02    0.42500E+00  0.42500E+00 -0.85000E+00  0.00000E+00  0.00000E+00  0.00000E+00    0.15000E+02  0.27168E+02 -0.42168E+02  0.41848E+01 -0.39251E+01  0.11095E+02      982.00
  0.82280E+00  0.67740E+02    0.43750E+00  0.43750E+00 -0.87500E+00  0.00000E+00  0.00000E+00  0.00000E+00    0.15151E+02  0.27051E+02 -0.42202E+02  0.41452E+01 -0.39608E+01  0.11203E+02      982.00
  0.84616E+00  0.67800E+02    0.45000E+00  0.45000E+00 -0.90000E+00  0.00000E+00  0.00000E+00  0.00000E+00    0.15300E+02  0.26935E+02 -0.42235E+02  0.41067E+01 -0.39944E+01  0.11305E+02      982.00
  0.86952E+00  0.67857E+02    0.46250E+00  0.46250E+00 -0.92500E+00  0.00000E+00  0.00000E+00  0.00000E+00    0.15447E+02  0.26819E+02 -0.42266E+02  0.40696E+01 -0.40258E+01  0.11399E+02      982.00
  0.89288E+00  0.67911E+02    0.47500E+00  0.47500E+00 -0.95000E+00  0.00000E+00  0.00000E+00  0.00000E+00    0.15590E+02  0.26706E+02 -0.42296E+02  0.40341E+01 -0.40549E+01  0.11487E+02      982.00
  0.91623E+00  0.67961E+02    0.48750E+00  0.48750E+00 -0.97500E+00  0.00000E+00  0.00000E+00  0.00000E+00    0.15729E+02  0.26596E+02 -0.42325E+02  0.40003E+01 -0.40819E+01  0.11569E+02      982.00
  0.93959E+00  0.67967E+02    0.50000E+00  0.50000E+00 -0.10000E+01  0.00000E+00  0.00000E+00  0.00000E+00    0.15851E+02  0.26478E+02 -0.42328E+02  0.39584E+01 -0.40945E+01  0.11637E+02      982.00
