          Evm          Svm            E11          E22          E33          E23          E13          E12         SDEV11       SDEV22       SDEV33       SDEV23       SDEV13       SDEV12      TEMP
  0.00000E+00  0.56429E+02    0.00000E+00  0.00000E+00  0.00000E+00  0.00000E+00  0.00000E+00  0.00000E+00    0.24289E+02  0.12068E+02 -0.36357E+02 -0.40750E+01  0.31834E+01 -0.24405E+01      982.00
  0.24161E-01  0.56327E+02    0.12500E-01  0.12500E-01 -0.25000E-01  0.00000E+00  0.00000E+00  0.00000E+00    0.24273E+02  0.12046E+02 -0.36319E+02 -0.40750E+01  0.28498E+01 -0.24844E+01      982.00
  0.48341E-01  0.56267E+02    0.25000E-01  0.25000E-01 -0.50000E-01  0.00000E+00  0.00000E+00  0.00000E+00    0.24265E+02  0.12046E+02 -0.36310E+02 -0.40548E+01  0.25189E+01 -0.25299E+01      982.00
  0.72540E-01  0.56293E+02    0.37500E-01  0.37500E-01 -0.75000E-01  0.00000E+00  0.00000E+00  0.00000E+00    0.24298E+02  0.12049E+02 -0.36347E+02 -0.40467E+01  0.22110E+01 -0.25822E+01      982.00
  0.96753E-01  0.56436E+02    0.50000E-01  0.50000E-01 -0.10000E+00  0.00000E+00  0.00000E+00  0.00000E+00    0.24398E+02  0.12049E+02 -0.36447E+02 -0.40642E+01  0.19381E+01 -0.26440E+01      982.00
  0.12097E+00  0.56706E+02    0.62500E-01  0.62500E-01 -0.12500E+00  0.00000E+00  0.00000E+00  0.00000E+00    0.24568E+02  0.12045E+02 -0.36613E+02 -0.41121E+01  0.17181E+01 -0.27249E+01      982.00
  0.14518E+00  0.57098E+02    0.75000E-01  0.75000E-01 -0.15000E+00  0.00000E+00  0.00000E+00  0.00000E+00    0.24803E+02  0.12042E+02 -0.36845E+02 -0.41902E+01  0.15351E+01 -0.28187E+01      982.00
  0.16938E+00  0.57585E+02    0.87500E-01  0.87500E-01 -0.17500E+00  0.00000E+00  0.00000E+00  0.00000E+00    0.25087E+02  0.12042E+02 -0.37128E+02 -0.42893E+01  0.13978E+01 -0.29292E+01      982.00
  0.19356E+00  0.58151E+02    0.10000E+00  0.10000E+00 -0.20000E+00  0.00000E+00  0.00000E+00  0.00000E+00    0.25404E+02  0.12053E+02 -0.37457E+02 -0.44081E+01  0.12858E+01 -0.30485E+01      982.00
  0.21771E+00  0.58775E+02    0.11250E+00  0.11250E+00 -0.22500E+00  0.00000E+00  0.00000E+00  0.00000E+00    0.25742E+02  0.12079E+02 -0.37821E+02 -0.45246E+01  0.12069E+01 -0.31743E+01      982.00
  0.24185E+00  0.59428E+02    0.12500E+00  0.12500E+00 -0.25000E+00  0.00000E+00  0.00000E+00  0.00000E+00    0.26086E+02  0.12119E+02 -0.38205E+02 -0.46403E+01  0.11486E+01 -0.33017E+01      982.00
  0.26595E+00  0.60089E+02    0.13750E+00  0.13750E+00 -0.27500E+00  0.00000E+00  0.00000E+00  0.00000E+00    0.26424E+02  0.12169E+02 -0.38593E+02 -0.47655E+01  0.11034E+01 -0.34323E+01      982.00
  0.29004E+00  0.60747E+02    0.15000E+00  0.15000E+00 -0.30000E+00  0.00000E+00  0.00000E+00  0.00000E+00    0.26749E+02  0.12239E+02 -0.38988E+02 -0.48605E+01  0.10743E+01 -0.35530E+01      982.00
  0.31411E+00  0.61385E+02    0.16250E+00  0.16250E+00 -0.32500E+00  0.00000E+00  0.00000E+00  0.00000E+00    0.27058E+02  0.12315E+02 -0.39372E+02 -0.49497E+01  0.10560E+01 -0.36698E+01      982.00
  0.33816E+00  0.61997E+02    0.17500E+00  0.17500E+00 -0.35000E+00  0.00000E+00  0.00000E+00  0.00000E+00    0.27346E+02  0.12398E+02 -0.39745E+02 -0.50261E+01  0.10452E+01 -0.37800E+01      982.00
  0.36220E+00  0.62582E+02    0.18750E+00  0.18750E+00 -0.37500E+00  0.00000E+00  0.00000E+00  0.00000E+00    0.27615E+02  0.12486E+02 -0.40100E+02 -0.51022E+01  0.10402E+01 -0.38914E+01      982.00
  0.38623E+00  0.63130E+02    0.20000E+00  0.20000E+00 -0.40000E+00  0.00000E+00  0.00000E+00  0.00000E+00    0.27860E+02  0.12580E+02 -0.40441E+02 -0.51495E+01  0.10404E+01 -0.39860E+01      982.00
  0.41025E+00  0.63642E+02    0.21250E+00  0.21250E+00 -0.42500E+00  0.00000E+00  0.00000E+00  0.00000E+00    0.28086E+02  0.12678E+02 -0.40764E+02 -0.51779E+01  0.10420E+01 -0.40705E+01      982.00
  0.43427E+00  0.64090E+02    0.22500E+00  0.22500E+00 -0.45000E+00  0.00000E+00  0.00000E+00  0.00000E+00    0.28277E+02  0.12774E+02 -0.41050E+02 -0.51963E+01  0.10479E+01 -0.41421E+01      982.00
  0.45829E+00  0.64549E+02    0.23750E+00  0.23750E+00 -0.47500E+00  0.00000E+00  0.00000E+00  0.00000E+00    0.28471E+02  0.12871E+02 -0.41342E+02 -0.52152E+01  0.10575E+01 -0.42237E+01      982.00
  0.48231E+00  0.64962E+02    0.25000E+00  0.25000E+00 -0.50000E+00  0.00000E+00  0.00000E+00  0.00000E+00    0.28643E+02  0.12968E+02 -0.41611E+02 -0.52120E+01  0.10653E+01 -0.42851E+01      982.00
  0.50633E+00  0.65375E+02    0.26250E+00  0.26250E+00 -0.52500E+00  0.00000E+00  0.00000E+00  0.00000E+00    0.28814E+02  0.13066E+02 -0.41881E+02 -0.51991E+01  0.10758E+01 -0.43523E+01      982.00
  0.53035E+00  0.65698E+02    0.27500E+00  0.27500E+00 -0.55000E+00  0.00000E+00  0.00000E+00  0.00000E+00    0.28943E+02  0.13156E+02 -0.42098E+02 -0.51783E+01  0.10811E+01 -0.43842E+01      982.00
  0.55438E+00  0.66023E+02    0.28750E+00  0.28750E+00 -0.57500E+00  0.00000E+00  0.00000E+00  0.00000E+00    0.29073E+02  0.13245E+02 -0.42318E+02 -0.51527E+01  0.10879E+01 -0.44223E+01      982.00
  0.57842E+00  0.66325E+02    0.30000E+00  0.30000E+00 -0.60000E+00  0.00000E+00  0.00000E+00  0.00000E+00    0.29192E+02  0.13332E+02 -0.42524E+02 -0.51196E+01  0.10946E+01 -0.44535E+01      982.00
  0.60246E+00  0.66605E+02    0.31250E+00  0.31250E+00 -0.62500E+00  0.00000E+00  0.00000E+00  0.00000E+00    0.29302E+02  0.13414E+02 -0.42717E+02 -0.50818E+01  0.11011E+01 -0.44780E+01      982.00
  0.62651E+00  0.66863E+02    0.32500E+00  0.32500E+00 -0.65000E+00  0.00000E+00  0.00000E+00  0.00000E+00    0.29403E+02  0.13494E+02 -0.42896E+02 -0.50401E+01  0.11072E+01 -0.44964E+01      982.00
  0.65057E+00  0.67099E+02    0.33750E+00  0.33750E+00 -0.67500E+00  0.00000E+00  0.00000E+00  0.00000E+00    0.29494E+02  0.13569E+02 -0.43063E+02 -0.49993E+01  0.11135E+01 -0.45097E+01      982.00
  0.67463E+00  0.67320E+02    0.35000E+00  0.35000E+00 -0.70000E+00  0.00000E+00  0.00000E+00  0.00000E+00    0.29579E+02  0.13640E+02 -0.43220E+02 -0.49525E+01  0.11187E+01 -0.45168E+01      982.00
  0.69871E+00  0.67522E+02    0.36250E+00  0.36250E+00 -0.72500E+00  0.00000E+00  0.00000E+00  0.00000E+00    0.29654E+02  0.13710E+02 -0.43365E+02 -0.49148E+01  0.11207E+01 -0.45173E+01      982.00
  0.72279E+00  0.67712E+02    0.37500E+00  0.37500E+00 -0.75000E+00  0.00000E+00  0.00000E+00  0.00000E+00    0.29727E+02  0.13775E+02 -0.43503E+02 -0.48674E+01  0.11255E+01 -0.45156E+01      982.00
  0.74688E+00  0.67888E+02    0.38750E+00  0.38750E+00 -0.77500E+00  0.00000E+00  0.00000E+00  0.00000E+00    0.29794E+02  0.13837E+02 -0.43631E+02 -0.48185E+01  0.11302E+01 -0.45095E+01      982.00
  0.77099E+00  0.68051E+02    0.40000E+00  0.40000E+00 -0.80000E+00  0.00000E+00  0.00000E+00  0.00000E+00    0.29857E+02  0.13895E+02 -0.43752E+02 -0.47694E+01  0.11347E+01 -0.44996E+01      982.00
  0.79510E+00  0.68202E+02    0.41250E+00  0.41250E+00 -0.82500E+00  0.00000E+00  0.00000E+00  0.00000E+00    0.29915E+02  0.13949E+02 -0.43864E+02 -0.47204E+01  0.11390E+01 -0.44860E+01      982.00
  0.81921E+00  0.68342E+02    0.42500E+00  0.42500E+00 -0.85000E+00  0.00000E+00  0.00000E+00  0.00000E+00    0.29969E+02  0.14001E+02 -0.43970E+02 -0.46719E+01  0.11432E+01 -0.44692E+01      982.00
  0.84334E+00  0.68456E+02    0.43750E+00  0.43750E+00 -0.87500E+00  0.00000E+00  0.00000E+00  0.00000E+00    0.30011E+02  0.14047E+02 -0.44058E+02 -0.46252E+01  0.11462E+01 -0.44510E+01      982.00
  0.86748E+00  0.68535E+02    0.45000E+00  0.45000E+00 -0.90000E+00  0.00000E+00  0.00000E+00  0.00000E+00    0.30041E+02  0.14087E+02 -0.44128E+02 -0.45583E+01  0.11380E+01 -0.44140E+01      982.00
  0.89162E+00  0.68590E+02    0.46250E+00  0.46250E+00 -0.92500E+00  0.00000E+00  0.00000E+00  0.00000E+00    0.30063E+02  0.14117E+02 -0.44180E+02 -0.44944E+01  0.11342E+01 -0.43800E+01      982.00
  0.91578E+00  0.68640E+02    0.47500E+00  0.47500E+00 -0.95000E+00  0.00000E+00  0.00000E+00  0.00000E+00    0.30084E+02  0.14145E+02 -0.44229E+02 -0.44333E+01  0.11312E+01 -0.43449E+01      982.00
  0.93994E+00  0.68688E+02    0.48750E+00  0.48750E+00 -0.97500E+00  0.00000E+00  0.00000E+00  0.00000E+00    0.30104E+02  0.14172E+02 -0.44275E+02 -0.43753E+01  0.11287E+01 -0.43087E+01      982.00
  0.96411E+00  0.68732E+02    0.50000E+00  0.50000E+00 -0.10000E+01  0.00000E+00  0.00000E+00  0.00000E+00    0.30123E+02  0.14196E+02 -0.44319E+02 -0.43203E+01  0.11267E+01 -0.42715E+01      982.00
