          Evm          Svm            E11          E22          E33          E23          E13          E12         SDEV11       SDEV22       SDEV33       SDEV23       SDEV13       SDEV12      TEMP
  0.00000E+00  0.56938E+02    0.00000E+00  0.00000E+00  0.00000E+00  0.00000E+00  0.00000E+00  0.00000E+00    0.19507E+02  0.13986E+02 -0.33493E+02  0.37242E+01 -0.76538E+01  0.12619E+02      982.00
  0.22059E-01  0.56966E+02    0.12500E-01  0.12500E-01 -0.25000E-01  0.00000E+00  0.00000E+00  0.00000E+00    0.18936E+02  0.14508E+02 -0.33444E+02  0.36341E+01 -0.70980E+01  0.13204E+02      982.00
  0.44074E-01  0.57186E+02    0.25000E-01  0.25000E-01 -0.50000E-01  0.00000E+00  0.00000E+00  0.00000E+00    0.18320E+02  0.15168E+02 -0.33488E+02  0.35418E+01 -0.64432E+01  0.13874E+02      982.00
  0.66034E-01  0.57484E+02    0.37500E-01  0.37500E-01 -0.75000E-01  0.00000E+00  0.00000E+00  0.00000E+00    0.17680E+02  0.15884E+02 -0.33564E+02  0.34059E+01 -0.57166E+01  0.14543E+02      982.00
  0.87930E-01  0.57770E+02    0.50000E-01  0.50000E-01 -0.10000E+00  0.00000E+00  0.00000E+00  0.00000E+00    0.17075E+02  0.16557E+02 -0.33632E+02  0.32055E+01 -0.49972E+01  0.15127E+02      982.00
  0.10976E+00  0.58049E+02    0.62500E-01  0.62500E-01 -0.12500E+00  0.00000E+00  0.00000E+00  0.00000E+00    0.16547E+02  0.17153E+02 -0.33700E+02  0.29502E+01 -0.43238E+01  0.15620E+02      982.00
  0.13153E+00  0.58347E+02    0.75000E-01  0.75000E-01 -0.15000E+00  0.00000E+00  0.00000E+00  0.00000E+00    0.16108E+02  0.17675E+02 -0.33784E+02  0.26598E+01 -0.37013E+01  0.16044E+02      982.00
  0.15324E+00  0.58670E+02    0.87500E-01  0.87500E-01 -0.17500E+00  0.00000E+00  0.00000E+00  0.00000E+00    0.15755E+02  0.18134E+02 -0.33888E+02  0.23520E+01 -0.31294E+01  0.16411E+02      982.00
  0.17490E+00  0.59009E+02    0.10000E+00  0.10000E+00 -0.20000E+00  0.00000E+00  0.00000E+00  0.00000E+00    0.15469E+02  0.18544E+02 -0.34012E+02  0.20329E+01 -0.25956E+01  0.16728E+02      982.00
  0.19652E+00  0.59358E+02    0.11250E+00  0.11250E+00 -0.22500E+00  0.00000E+00  0.00000E+00  0.00000E+00    0.15242E+02  0.18910E+02 -0.34152E+02  0.17141E+01 -0.21057E+01  0.16999E+02      982.00
  0.21809E+00  0.59711E+02    0.12500E+00  0.12500E+00 -0.25000E+00  0.00000E+00  0.00000E+00  0.00000E+00    0.15068E+02  0.19235E+02 -0.34303E+02  0.14073E+01 -0.16667E+01  0.17229E+02      982.00
  0.23964E+00  0.60062E+02    0.13750E+00  0.13750E+00 -0.27500E+00  0.00000E+00  0.00000E+00  0.00000E+00    0.14933E+02  0.19529E+02 -0.34463E+02  0.11086E+01 -0.12654E+01  0.17424E+02      982.00
  0.26115E+00  0.60407E+02    0.15000E+00  0.15000E+00 -0.30000E+00  0.00000E+00  0.00000E+00  0.00000E+00    0.14834E+02  0.19793E+02 -0.34627E+02  0.82389E+00 -0.90562E+00  0.17590E+02      982.00
  0.28265E+00  0.60746E+02    0.16250E+00  0.16250E+00 -0.32500E+00  0.00000E+00  0.00000E+00  0.00000E+00    0.14770E+02  0.20026E+02 -0.34796E+02  0.55970E+00 -0.59168E+00  0.17731E+02      982.00
  0.30413E+00  0.61073E+02    0.17500E+00  0.17500E+00 -0.35000E+00  0.00000E+00  0.00000E+00  0.00000E+00    0.14728E+02  0.20236E+02 -0.34964E+02  0.30339E+00 -0.30522E+00  0.17852E+02      982.00
  0.32560E+00  0.61394E+02    0.18750E+00  0.18750E+00 -0.37500E+00  0.00000E+00  0.00000E+00  0.00000E+00    0.14712E+02  0.20422E+02 -0.35134E+02  0.59270E-01 -0.52570E-01  0.17956E+02      982.00
  0.34706E+00  0.61694E+02    0.20000E+00  0.20000E+00 -0.40000E+00  0.00000E+00  0.00000E+00  0.00000E+00    0.14715E+02  0.20583E+02 -0.35298E+02 -0.16960E+00  0.17223E+00  0.18044E+02      982.00
  0.36852E+00  0.61970E+02    0.21250E+00  0.21250E+00 -0.42500E+00  0.00000E+00  0.00000E+00  0.00000E+00    0.14733E+02  0.20722E+02 -0.35456E+02 -0.39836E+00  0.38390E+00  0.18111E+02      982.00
  0.38997E+00  0.62237E+02    0.22500E+00  0.22500E+00 -0.45000E+00  0.00000E+00  0.00000E+00  0.00000E+00    0.14769E+02  0.20840E+02 -0.35609E+02 -0.61288E+00  0.57092E+00  0.18172E+02      982.00
  0.41143E+00  0.62483E+02    0.23750E+00  0.23750E+00 -0.47500E+00  0.00000E+00  0.00000E+00  0.00000E+00    0.14818E+02  0.20939E+02 -0.35756E+02 -0.82306E+00  0.74854E+00  0.18218E+02      982.00
  0.43289E+00  0.62715E+02    0.25000E+00  0.25000E+00 -0.50000E+00  0.00000E+00  0.00000E+00  0.00000E+00    0.14878E+02  0.21019E+02 -0.35897E+02 -0.10191E+01  0.90518E+00  0.18257E+02      982.00
  0.45435E+00  0.62931E+02    0.26250E+00  0.26250E+00 -0.52500E+00  0.00000E+00  0.00000E+00  0.00000E+00    0.14949E+02  0.21083E+02 -0.36032E+02 -0.12010E+01  0.10463E+01  0.18287E+02      982.00
  0.47582E+00  0.63133E+02    0.27500E+00  0.27500E+00 -0.55000E+00  0.00000E+00  0.00000E+00  0.00000E+00    0.15027E+02  0.21134E+02 -0.36161E+02 -0.13654E+01  0.11713E+01  0.18311E+02      982.00
  0.49730E+00  0.63317E+02    0.28750E+00  0.28750E+00 -0.57500E+00  0.00000E+00  0.00000E+00  0.00000E+00    0.15113E+02  0.21171E+02 -0.36284E+02 -0.15144E+01  0.12812E+01  0.18326E+02      982.00
  0.51879E+00  0.63499E+02    0.30000E+00  0.30000E+00 -0.60000E+00  0.00000E+00  0.00000E+00  0.00000E+00    0.15200E+02  0.21204E+02 -0.36404E+02 -0.16383E+01  0.13733E+01  0.18344E+02      982.00
  0.54029E+00  0.63673E+02    0.31250E+00  0.31250E+00 -0.62500E+00  0.00000E+00  0.00000E+00  0.00000E+00    0.15291E+02  0.21230E+02 -0.36521E+02 -0.17424E+01  0.14509E+01  0.18361E+02      982.00
  0.56180E+00  0.63830E+02    0.32500E+00  0.32500E+00 -0.65000E+00  0.00000E+00  0.00000E+00  0.00000E+00    0.15387E+02  0.21245E+02 -0.36632E+02 -0.18364E+01  0.15213E+01  0.18368E+02      982.00
  0.58332E+00  0.63989E+02    0.33750E+00  0.33750E+00 -0.67500E+00  0.00000E+00  0.00000E+00  0.00000E+00    0.15480E+02  0.21262E+02 -0.36742E+02 -0.19052E+01  0.15746E+01  0.18382E+02      982.00
  0.60485E+00  0.64115E+02    0.35000E+00  0.35000E+00 -0.70000E+00  0.00000E+00  0.00000E+00  0.00000E+00    0.15573E+02  0.21264E+02 -0.36837E+02 -0.19625E+01  0.16200E+01  0.18384E+02      982.00
  0.62640E+00  0.64259E+02    0.36250E+00  0.36250E+00 -0.72500E+00  0.00000E+00  0.00000E+00  0.00000E+00    0.15667E+02  0.21272E+02 -0.36939E+02 -0.20050E+01  0.16572E+01  0.18397E+02      982.00
  0.64795E+00  0.64395E+02    0.37500E+00  0.37500E+00 -0.75000E+00  0.00000E+00  0.00000E+00  0.00000E+00    0.15761E+02  0.21275E+02 -0.37036E+02 -0.20375E+01  0.16886E+01  0.18408E+02      982.00
  0.66952E+00  0.64521E+02    0.38750E+00  0.38750E+00 -0.77500E+00  0.00000E+00  0.00000E+00  0.00000E+00    0.15855E+02  0.21274E+02 -0.37129E+02 -0.20620E+01  0.17150E+01  0.18418E+02      982.00
  0.69110E+00  0.64627E+02    0.40000E+00  0.40000E+00 -0.80000E+00  0.00000E+00  0.00000E+00  0.00000E+00    0.15955E+02  0.21255E+02 -0.37209E+02 -0.20871E+01  0.17445E+01  0.18422E+02      982.00
  0.71269E+00  0.64737E+02    0.41250E+00  0.41250E+00 -0.82500E+00  0.00000E+00  0.00000E+00  0.00000E+00    0.16049E+02  0.21244E+02 -0.37293E+02 -0.20992E+01  0.17626E+01  0.18429E+02      982.00
  0.73429E+00  0.64839E+02    0.42500E+00  0.42500E+00 -0.85000E+00  0.00000E+00  0.00000E+00  0.00000E+00    0.16142E+02  0.21230E+02 -0.37372E+02 -0.21067E+01  0.17769E+01  0.18434E+02      982.00
  0.75591E+00  0.64933E+02    0.43750E+00  0.43750E+00 -0.87500E+00  0.00000E+00  0.00000E+00  0.00000E+00    0.16234E+02  0.21212E+02 -0.37446E+02 -0.21112E+01  0.17882E+01  0.18436E+02      982.00
  0.77753E+00  0.65020E+02    0.45000E+00  0.45000E+00 -0.90000E+00  0.00000E+00  0.00000E+00  0.00000E+00    0.16343E+02  0.21174E+02 -0.37517E+02 -0.21178E+01  0.18033E+01  0.18439E+02      982.00
  0.79917E+00  0.65100E+02    0.46250E+00  0.46250E+00 -0.92500E+00  0.00000E+00  0.00000E+00  0.00000E+00    0.16433E+02  0.21150E+02 -0.37583E+02 -0.21178E+01  0.18101E+01  0.18439E+02      982.00
  0.82082E+00  0.65173E+02    0.47500E+00  0.47500E+00 -0.95000E+00  0.00000E+00  0.00000E+00  0.00000E+00    0.16520E+02  0.21124E+02 -0.37644E+02 -0.21161E+01  0.18138E+01  0.18438E+02      982.00
  0.84248E+00  0.65240E+02    0.48750E+00  0.48750E+00 -0.97500E+00  0.00000E+00  0.00000E+00  0.00000E+00    0.16605E+02  0.21097E+02 -0.37702E+02 -0.21137E+01  0.18156E+01  0.18435E+02      982.00
  0.86415E+00  0.65302E+02    0.50000E+00  0.50000E+00 -0.10000E+01  0.00000E+00  0.00000E+00  0.00000E+00    0.16688E+02  0.21068E+02 -0.37756E+02 -0.21109E+01  0.18160E+01  0.18433E+02      982.00
