          Evm          Svm            E11          E22          E33          E23          E13          E12         SDEV11       SDEV22       SDEV33       SDEV23       SDEV13       SDEV12      TEMP
  0.00000E+00  0.62481E+02    0.00000E+00  0.00000E+00  0.00000E+00  0.00000E+00  0.00000E+00  0.00000E+00    0.18778E+02  0.20868E+02 -0.39645E+02 -0.53545E+01 -0.50568E+01 -0.81936E+01      982.00
  0.23795E-01  0.62329E+02    0.12500E-01  0.12500E-01 -0.25000E-01  0.00000E+00  0.00000E+00  0.00000E+00    0.18952E+02  0.20714E+02 -0.39666E+02 -0.51132E+01 -0.50802E+01 -0.78857E+01      982.00
  0.47659E-01  0.62265E+02    0.25000E-01  0.25000E-01 -0.50000E-01  0.00000E+00  0.00000E+00  0.00000E+00    0.19074E+02  0.20639E+02 -0.39713E+02 -0.49365E+01 -0.51314E+01 -0.76268E+01      982.00
  0.71577E-01  0.62296E+02    0.37500E-01  0.37500E-01 -0.75000E-01  0.00000E+00  0.00000E+00  0.00000E+00    0.19190E+02  0.20606E+02 -0.39796E+02 -0.48022E+01 -0.52047E+01 -0.74257E+01      982.00
  0.95533E-01  0.62383E+02    0.50000E-01  0.50000E-01 -0.10000E+00  0.00000E+00  0.00000E+00  0.00000E+00    0.19287E+02  0.20611E+02 -0.39898E+02 -0.47045E+01 -0.52702E+01 -0.72774E+01      982.00
  0.11952E+00  0.62520E+02    0.62500E-01  0.62500E-01 -0.12500E+00  0.00000E+00  0.00000E+00  0.00000E+00    0.19389E+02  0.20632E+02 -0.40021E+02 -0.46273E+01 -0.53267E+01 -0.71761E+01      982.00
  0.14352E+00  0.62708E+02    0.75000E-01  0.75000E-01 -0.15000E+00  0.00000E+00  0.00000E+00  0.00000E+00    0.19498E+02  0.20670E+02 -0.40168E+02 -0.45684E+01 -0.53695E+01 -0.71146E+01      982.00
  0.16754E+00  0.62918E+02    0.87500E-01  0.87500E-01 -0.17500E+00  0.00000E+00  0.00000E+00  0.00000E+00    0.19608E+02  0.20715E+02 -0.40323E+02 -0.45244E+01 -0.53962E+01 -0.70854E+01      982.00
  0.19158E+00  0.63166E+02    0.10000E+00  0.10000E+00 -0.20000E+00  0.00000E+00  0.00000E+00  0.00000E+00    0.19741E+02  0.20759E+02 -0.40500E+02 -0.44848E+01 -0.54139E+01 -0.70774E+01      982.00
  0.21562E+00  0.63446E+02    0.11250E+00  0.11250E+00 -0.22500E+00  0.00000E+00  0.00000E+00  0.00000E+00    0.19887E+02  0.20806E+02 -0.40693E+02 -0.44574E+01 -0.54266E+01 -0.70930E+01      982.00
  0.23967E+00  0.63740E+02    0.12500E+00  0.12500E+00 -0.25000E+00  0.00000E+00  0.00000E+00  0.00000E+00    0.20048E+02  0.20848E+02 -0.40895E+02 -0.44324E+01 -0.54301E+01 -0.71155E+01      982.00
  0.26373E+00  0.64057E+02    0.13750E+00  0.13750E+00 -0.27500E+00  0.00000E+00  0.00000E+00  0.00000E+00    0.20228E+02  0.20885E+02 -0.41113E+02 -0.44108E+01 -0.54290E+01 -0.71443E+01      982.00
  0.28780E+00  0.64371E+02    0.15000E+00  0.15000E+00 -0.30000E+00  0.00000E+00  0.00000E+00  0.00000E+00    0.20419E+02  0.20908E+02 -0.41327E+02 -0.43912E+01 -0.54249E+01 -0.71758E+01      982.00
  0.31188E+00  0.64684E+02    0.16250E+00  0.16250E+00 -0.32500E+00  0.00000E+00  0.00000E+00  0.00000E+00    0.20621E+02  0.20920E+02 -0.41541E+02 -0.43738E+01 -0.54174E+01 -0.72054E+01      982.00
  0.33596E+00  0.64995E+02    0.17500E+00  0.17500E+00 -0.35000E+00  0.00000E+00  0.00000E+00  0.00000E+00    0.20826E+02  0.20927E+02 -0.41753E+02 -0.43628E+01 -0.54065E+01 -0.72361E+01      982.00
  0.36005E+00  0.65290E+02    0.18750E+00  0.18750E+00 -0.37500E+00  0.00000E+00  0.00000E+00  0.00000E+00    0.21044E+02  0.20912E+02 -0.41956E+02 -0.43489E+01 -0.53951E+01 -0.72574E+01      982.00
  0.38415E+00  0.65573E+02    0.20000E+00  0.20000E+00 -0.40000E+00  0.00000E+00  0.00000E+00  0.00000E+00    0.21272E+02  0.20881E+02 -0.42153E+02 -0.43320E+01 -0.53826E+01 -0.72694E+01      982.00
  0.40825E+00  0.65848E+02    0.21250E+00  0.21250E+00 -0.42500E+00  0.00000E+00  0.00000E+00  0.00000E+00    0.21494E+02  0.20849E+02 -0.42343E+02 -0.43257E+01 -0.53667E+01 -0.72823E+01      982.00
  0.43237E+00  0.66099E+02    0.22500E+00  0.22500E+00 -0.45000E+00  0.00000E+00  0.00000E+00  0.00000E+00    0.21722E+02  0.20796E+02 -0.42518E+02 -0.43156E+01 -0.53523E+01 -0.72855E+01      982.00
  0.45649E+00  0.66335E+02    0.23750E+00  0.23750E+00 -0.47500E+00  0.00000E+00  0.00000E+00  0.00000E+00    0.21951E+02  0.20732E+02 -0.42683E+02 -0.43070E+01 -0.53356E+01 -0.72810E+01      982.00
  0.48062E+00  0.66549E+02    0.25000E+00  0.25000E+00 -0.50000E+00  0.00000E+00  0.00000E+00  0.00000E+00    0.22177E+02  0.20656E+02 -0.42834E+02 -0.42987E+01 -0.53190E+01 -0.72718E+01      982.00
  0.50475E+00  0.66756E+02    0.26250E+00  0.26250E+00 -0.52500E+00  0.00000E+00  0.00000E+00  0.00000E+00    0.22405E+02  0.20574E+02 -0.42980E+02 -0.42921E+01 -0.53013E+01 -0.72566E+01      982.00
  0.52890E+00  0.66939E+02    0.27500E+00  0.27500E+00 -0.55000E+00  0.00000E+00  0.00000E+00  0.00000E+00    0.22635E+02  0.20475E+02 -0.43110E+02 -0.42808E+01 -0.52868E+01 -0.72346E+01      982.00
  0.55305E+00  0.67109E+02    0.28750E+00  0.28750E+00 -0.57500E+00  0.00000E+00  0.00000E+00  0.00000E+00    0.22856E+02  0.20375E+02 -0.43231E+02 -0.42750E+01 -0.52687E+01 -0.72088E+01      982.00
  0.57720E+00  0.67276E+02    0.30000E+00  0.30000E+00 -0.60000E+00  0.00000E+00  0.00000E+00  0.00000E+00    0.23077E+02  0.20272E+02 -0.43350E+02 -0.42695E+01 -0.52484E+01 -0.71784E+01      982.00
  0.60137E+00  0.67420E+02    0.31250E+00  0.31250E+00 -0.62500E+00  0.00000E+00  0.00000E+00  0.00000E+00    0.23292E+02  0.20161E+02 -0.43453E+02 -0.42653E+01 -0.52296E+01 -0.71453E+01      982.00
  0.62554E+00  0.67554E+02    0.32500E+00  0.32500E+00 -0.65000E+00  0.00000E+00  0.00000E+00  0.00000E+00    0.23504E+02  0.20046E+02 -0.43550E+02 -0.42604E+01 -0.52084E+01 -0.71067E+01      982.00
  0.64971E+00  0.67673E+02    0.33750E+00  0.33750E+00 -0.67500E+00  0.00000E+00  0.00000E+00  0.00000E+00    0.23709E+02  0.19925E+02 -0.43635E+02 -0.42572E+01 -0.51873E+01 -0.70658E+01      982.00
  0.67389E+00  0.67783E+02    0.35000E+00  0.35000E+00 -0.70000E+00  0.00000E+00  0.00000E+00  0.00000E+00    0.23914E+02  0.19800E+02 -0.43714E+02 -0.42476E+01 -0.51695E+01 -0.70208E+01      982.00
  0.69808E+00  0.67892E+02    0.36250E+00  0.36250E+00 -0.72500E+00  0.00000E+00  0.00000E+00  0.00000E+00    0.24119E+02  0.19674E+02 -0.43792E+02 -0.42451E+01 -0.51513E+01 -0.69725E+01      982.00
  0.72226E+00  0.67991E+02    0.37500E+00  0.37500E+00 -0.75000E+00  0.00000E+00  0.00000E+00  0.00000E+00    0.24312E+02  0.19552E+02 -0.43864E+02 -0.42417E+01 -0.51258E+01 -0.69231E+01      982.00
  0.74646E+00  0.68077E+02    0.38750E+00  0.38750E+00 -0.77500E+00  0.00000E+00  0.00000E+00  0.00000E+00    0.24503E+02  0.19424E+02 -0.43927E+02 -0.42399E+01 -0.51031E+01 -0.68701E+01      982.00
  0.77065E+00  0.68158E+02    0.40000E+00  0.40000E+00 -0.80000E+00  0.00000E+00  0.00000E+00  0.00000E+00    0.24690E+02  0.19295E+02 -0.43985E+02 -0.42375E+01 -0.50813E+01 -0.68149E+01      982.00
  0.79485E+00  0.68228E+02    0.41250E+00  0.41250E+00 -0.82500E+00  0.00000E+00  0.00000E+00  0.00000E+00    0.24870E+02  0.19164E+02 -0.44035E+02 -0.42273E+01 -0.50671E+01 -0.67609E+01      982.00
  0.81906E+00  0.68303E+02    0.42500E+00  0.42500E+00 -0.85000E+00  0.00000E+00  0.00000E+00  0.00000E+00    0.25052E+02  0.19037E+02 -0.44089E+02 -0.42260E+01 -0.50436E+01 -0.67023E+01      982.00
  0.84326E+00  0.68363E+02    0.43750E+00  0.43750E+00 -0.87500E+00  0.00000E+00  0.00000E+00  0.00000E+00    0.25224E+02  0.18907E+02 -0.44131E+02 -0.42246E+01 -0.50203E+01 -0.66421E+01      982.00
  0.86747E+00  0.68421E+02    0.45000E+00  0.45000E+00 -0.90000E+00  0.00000E+00  0.00000E+00  0.00000E+00    0.25394E+02  0.18780E+02 -0.44173E+02 -0.42232E+01 -0.49962E+01 -0.65798E+01      982.00
  0.89168E+00  0.68419E+02    0.46250E+00  0.46250E+00 -0.92500E+00  0.00000E+00  0.00000E+00  0.00000E+00    0.25517E+02  0.18664E+02 -0.44181E+02 -0.42045E+01 -0.49511E+01 -0.65157E+01      982.00
  0.91590E+00  0.68410E+02    0.47500E+00  0.47500E+00 -0.95000E+00  0.00000E+00  0.00000E+00  0.00000E+00    0.25642E+02  0.18543E+02 -0.44184E+02 -0.41906E+01 -0.49048E+01 -0.64465E+01      982.00
  0.94012E+00  0.68405E+02    0.48750E+00  0.48750E+00 -0.97500E+00  0.00000E+00  0.00000E+00  0.00000E+00    0.25765E+02  0.18425E+02 -0.44190E+02 -0.41764E+01 -0.48597E+01 -0.63782E+01      982.00
  0.96434E+00  0.68400E+02    0.50000E+00  0.50000E+00 -0.10000E+01  0.00000E+00  0.00000E+00  0.00000E+00    0.25896E+02  0.18298E+02 -0.44195E+02 -0.41571E+01 -0.48168E+01 -0.63021E+01      982.00
