          Evm          Svm            E11          E22          E33          E23          E13          E12         SDEV11       SDEV22       SDEV33       SDEV23       SDEV13       SDEV12      TEMP
  0.00000E+00  0.57368E+02    0.00000E+00  0.00000E+00  0.00000E+00  0.00000E+00  0.00000E+00  0.00000E+00    0.97658E+01  0.26135E+02 -0.35901E+02 -0.70950E+00  0.36216E+00 -0.79238E+01      982.00
  0.23467E-01  0.57588E+02    0.12500E-01  0.12500E-01 -0.25000E-01  0.00000E+00  0.00000E+00  0.00000E+00    0.97371E+01  0.26215E+02 -0.35952E+02 -0.75094E+00  0.21976E-02 -0.82241E+01      982.00
  0.46878E-01  0.57872E+02    0.25000E-01  0.25000E-01 -0.50000E-01  0.00000E+00  0.00000E+00  0.00000E+00    0.97449E+01  0.26302E+02 -0.36047E+02 -0.80069E+00 -0.30730E+00 -0.85188E+01      982.00
  0.70236E-01  0.58233E+02    0.37500E-01  0.37500E-01 -0.75000E-01  0.00000E+00  0.00000E+00  0.00000E+00    0.97965E+01  0.26396E+02 -0.36192E+02 -0.87995E+00 -0.60348E+00 -0.88287E+01      982.00
  0.93542E-01  0.58679E+02    0.50000E-01  0.50000E-01 -0.10000E+00  0.00000E+00  0.00000E+00  0.00000E+00    0.98951E+01  0.26496E+02 -0.36391E+02 -0.10006E+01 -0.89533E+00 -0.91539E+01      982.00
  0.11680E+00  0.59204E+02    0.62500E-01  0.62500E-01 -0.12500E+00  0.00000E+00  0.00000E+00  0.00000E+00    0.10037E+02  0.26607E+02 -0.36644E+02 -0.11677E+01 -0.11767E+01 -0.94805E+01      982.00
  0.14001E+00  0.59800E+02    0.75000E-01  0.75000E-01 -0.15000E+00  0.00000E+00  0.00000E+00  0.00000E+00    0.10226E+02  0.26724E+02 -0.36950E+02 -0.13830E+01 -0.14627E+01 -0.97972E+01      982.00
  0.16318E+00  0.60439E+02    0.87500E-01  0.87500E-01 -0.17500E+00  0.00000E+00  0.00000E+00  0.00000E+00    0.10468E+02  0.26829E+02 -0.37296E+02 -0.16318E+01 -0.17683E+01 -0.10082E+02      982.00
  0.18632E+00  0.61033E+02    0.10000E+00  0.10000E+00 -0.20000E+00  0.00000E+00  0.00000E+00  0.00000E+00    0.10763E+02  0.26881E+02 -0.37644E+02 -0.18869E+01 -0.21030E+01 -0.10294E+02      982.00
  0.20945E+00  0.61496E+02    0.11250E+00  0.11250E+00 -0.22500E+00  0.00000E+00  0.00000E+00  0.00000E+00    0.11072E+02  0.26869E+02 -0.37941E+02 -0.21516E+01 -0.24080E+01 -0.10398E+02      982.00
  0.23259E+00  0.61874E+02    0.12500E+00  0.12500E+00 -0.25000E+00  0.00000E+00  0.00000E+00  0.00000E+00    0.11328E+02  0.26873E+02 -0.38202E+02 -0.24551E+01 -0.25878E+01 -0.10415E+02      982.00
  0.25574E+00  0.62260E+02    0.13750E+00  0.13750E+00 -0.27500E+00  0.00000E+00  0.00000E+00  0.00000E+00    0.11511E+02  0.26953E+02 -0.38464E+02 -0.27906E+01 -0.26449E+01 -0.10398E+02      982.00
  0.27891E+00  0.62649E+02    0.15000E+00  0.15000E+00 -0.30000E+00  0.00000E+00  0.00000E+00  0.00000E+00    0.11634E+02  0.27092E+02 -0.38726E+02 -0.30991E+01 -0.26039E+01 -0.10365E+02      982.00
  0.30209E+00  0.63055E+02    0.16250E+00  0.16250E+00 -0.32500E+00  0.00000E+00  0.00000E+00  0.00000E+00    0.11740E+02  0.27255E+02 -0.38994E+02 -0.33655E+01 -0.25462E+01 -0.10338E+02      982.00
  0.32528E+00  0.63473E+02    0.17500E+00  0.17500E+00 -0.35000E+00  0.00000E+00  0.00000E+00  0.00000E+00    0.11841E+02  0.27427E+02 -0.39268E+02 -0.35898E+01 -0.24952E+01 -0.10325E+02      982.00
  0.34848E+00  0.63899E+02    0.18750E+00  0.18750E+00 -0.37500E+00  0.00000E+00  0.00000E+00  0.00000E+00    0.11935E+02  0.27608E+02 -0.39543E+02 -0.37738E+01 -0.24576E+01 -0.10325E+02      982.00
  0.37168E+00  0.64329E+02    0.20000E+00  0.20000E+00 -0.40000E+00  0.00000E+00  0.00000E+00  0.00000E+00    0.12038E+02  0.27782E+02 -0.39820E+02 -0.39226E+01 -0.24409E+01 -0.10337E+02      982.00
  0.39490E+00  0.64741E+02    0.21250E+00  0.21250E+00 -0.42500E+00  0.00000E+00  0.00000E+00  0.00000E+00    0.12156E+02  0.27937E+02 -0.40092E+02 -0.40298E+01 -0.24491E+01 -0.10349E+02      982.00
  0.41812E+00  0.65155E+02    0.22500E+00  0.22500E+00 -0.45000E+00  0.00000E+00  0.00000E+00  0.00000E+00    0.12279E+02  0.28085E+02 -0.40365E+02 -0.41223E+01 -0.24730E+01 -0.10369E+02      982.00
  0.44135E+00  0.65559E+02    0.23750E+00  0.23750E+00 -0.47500E+00  0.00000E+00  0.00000E+00  0.00000E+00    0.12415E+02  0.28219E+02 -0.40635E+02 -0.41954E+01 -0.25134E+01 -0.10387E+02      982.00
  0.46459E+00  0.65897E+02    0.25000E+00  0.25000E+00 -0.50000E+00  0.00000E+00  0.00000E+00  0.00000E+00    0.12547E+02  0.28322E+02 -0.40869E+02 -0.42369E+01 -0.25632E+01 -0.10392E+02      982.00
  0.48785E+00  0.66210E+02    0.26250E+00  0.26250E+00 -0.52500E+00  0.00000E+00  0.00000E+00  0.00000E+00    0.12679E+02  0.28415E+02 -0.41093E+02 -0.42592E+01 -0.26019E+01 -0.10390E+02      982.00
  0.51113E+00  0.66530E+02    0.27500E+00  0.27500E+00 -0.55000E+00  0.00000E+00  0.00000E+00  0.00000E+00    0.12820E+02  0.28501E+02 -0.41321E+02 -0.42845E+01 -0.26529E+01 -0.10391E+02      982.00
  0.53442E+00  0.66828E+02    0.28750E+00  0.28750E+00 -0.57500E+00  0.00000E+00  0.00000E+00  0.00000E+00    0.12964E+02  0.28574E+02 -0.41537E+02 -0.43029E+01 -0.27051E+01 -0.10387E+02      982.00
  0.55773E+00  0.67110E+02    0.30000E+00  0.30000E+00 -0.60000E+00  0.00000E+00  0.00000E+00  0.00000E+00    0.13103E+02  0.28643E+02 -0.41745E+02 -0.43128E+01 -0.27460E+01 -0.10379E+02      982.00
  0.58105E+00  0.67368E+02    0.31250E+00  0.31250E+00 -0.62500E+00  0.00000E+00  0.00000E+00  0.00000E+00    0.13247E+02  0.28693E+02 -0.41939E+02 -0.43218E+01 -0.27955E+01 -0.10368E+02      982.00
  0.60440E+00  0.67606E+02    0.32500E+00  0.32500E+00 -0.65000E+00  0.00000E+00  0.00000E+00  0.00000E+00    0.13392E+02  0.28731E+02 -0.42122E+02 -0.43272E+01 -0.28437E+01 -0.10353E+02      982.00
  0.62776E+00  0.67826E+02    0.33750E+00  0.33750E+00 -0.67500E+00  0.00000E+00  0.00000E+00  0.00000E+00    0.13536E+02  0.28758E+02 -0.42295E+02 -0.43295E+01 -0.28896E+01 -0.10334E+02      982.00
  0.65115E+00  0.68029E+02    0.35000E+00  0.35000E+00 -0.70000E+00  0.00000E+00  0.00000E+00  0.00000E+00    0.13681E+02  0.28776E+02 -0.42457E+02 -0.43292E+01 -0.29332E+01 -0.10313E+02      982.00
  0.67455E+00  0.68215E+02    0.36250E+00  0.36250E+00 -0.72500E+00  0.00000E+00  0.00000E+00  0.00000E+00    0.13824E+02  0.28785E+02 -0.42609E+02 -0.43268E+01 -0.29741E+01 -0.10290E+02      982.00
  0.69797E+00  0.68386E+02    0.37500E+00  0.37500E+00 -0.75000E+00  0.00000E+00  0.00000E+00  0.00000E+00    0.13966E+02  0.28786E+02 -0.42752E+02 -0.43226E+01 -0.30125E+01 -0.10265E+02      982.00
  0.72142E+00  0.68541E+02    0.38750E+00  0.38750E+00 -0.77500E+00  0.00000E+00  0.00000E+00  0.00000E+00    0.14106E+02  0.28779E+02 -0.42886E+02 -0.43171E+01 -0.30490E+01 -0.10238E+02      982.00
  0.74488E+00  0.68685E+02    0.40000E+00  0.40000E+00 -0.80000E+00  0.00000E+00  0.00000E+00  0.00000E+00    0.14245E+02  0.28766E+02 -0.43012E+02 -0.43101E+01 -0.30824E+01 -0.10211E+02      982.00
  0.76836E+00  0.68818E+02    0.41250E+00  0.41250E+00 -0.82500E+00  0.00000E+00  0.00000E+00  0.00000E+00    0.14382E+02  0.28747E+02 -0.43130E+02 -0.43019E+01 -0.31134E+01 -0.10184E+02      982.00
  0.79187E+00  0.68945E+02    0.42500E+00  0.42500E+00 -0.85000E+00  0.00000E+00  0.00000E+00  0.00000E+00    0.14514E+02  0.28729E+02 -0.43243E+02 -0.42947E+01 -0.31339E+01 -0.10158E+02      982.00
  0.81539E+00  0.69053E+02    0.43750E+00  0.43750E+00 -0.87500E+00  0.00000E+00  0.00000E+00  0.00000E+00    0.14651E+02  0.28696E+02 -0.43347E+02 -0.42826E+01 -0.31644E+01 -0.10127E+02      982.00
  0.83893E+00  0.69154E+02    0.45000E+00  0.45000E+00 -0.90000E+00  0.00000E+00  0.00000E+00  0.00000E+00    0.14781E+02  0.28662E+02 -0.43443E+02 -0.42722E+01 -0.31900E+01 -0.10100E+02      982.00
  0.86248E+00  0.69188E+02    0.46250E+00  0.46250E+00 -0.92500E+00  0.00000E+00  0.00000E+00  0.00000E+00    0.14903E+02  0.28598E+02 -0.43501E+02 -0.42411E+01 -0.32000E+01 -0.10064E+02      982.00
  0.88606E+00  0.69218E+02    0.47500E+00  0.47500E+00 -0.95000E+00  0.00000E+00  0.00000E+00  0.00000E+00    0.15023E+02  0.28532E+02 -0.43555E+02 -0.42130E+01 -0.32107E+01 -0.10029E+02      982.00
  0.90966E+00  0.69244E+02    0.48750E+00  0.48750E+00 -0.97500E+00  0.00000E+00  0.00000E+00  0.00000E+00    0.15140E+02  0.28465E+02 -0.43605E+02 -0.41853E+01 -0.32206E+01 -0.99955E+01      982.00
  0.93327E+00  0.69268E+02    0.50000E+00  0.50000E+00 -0.10000E+01  0.00000E+00  0.00000E+00  0.00000E+00    0.15253E+02  0.28399E+02 -0.43652E+02 -0.41573E+01 -0.32292E+01 -0.99641E+01      982.00
