          Evm          Svm            E11          E22          E33          E23          E13          E12         SDEV11       SDEV22       SDEV33       SDEV23       SDEV13       SDEV12      TEMP
  0.00000E+00  0.61027E+02    0.00000E+00  0.00000E+00  0.00000E+00  0.00000E+00  0.00000E+00  0.00000E+00    0.21486E+02  0.16871E+02 -0.38357E+02 -0.19283E+01  0.89887E+00  0.11320E+02      982.00
  0.23570E-01  0.61236E+02    0.12500E-01  0.12500E-01 -0.25000E-01  0.00000E+00  0.00000E+00  0.00000E+00    0.21564E+02  0.16934E+02 -0.38498E+02 -0.19308E+01  0.11241E+01  0.11314E+02      982.00
  0.47145E-01  0.61423E+02    0.25000E-01  0.25000E-01 -0.50000E-01  0.00000E+00  0.00000E+00  0.00000E+00    0.21717E+02  0.16921E+02 -0.38638E+02 -0.19741E+01  0.13701E+01  0.11243E+02      982.00
  0.70735E-01  0.61538E+02    0.37500E-01  0.37500E-01 -0.75000E-01  0.00000E+00  0.00000E+00  0.00000E+00    0.21912E+02  0.16837E+02 -0.38749E+02 -0.20183E+01  0.16376E+01  0.11091E+02      982.00
  0.94347E-01  0.61620E+02    0.50000E-01  0.50000E-01 -0.10000E+00  0.00000E+00  0.00000E+00  0.00000E+00    0.22139E+02  0.16710E+02 -0.38848E+02 -0.20224E+01  0.19289E+01  0.10890E+02      982.00
  0.11799E+00  0.61725E+02    0.62500E-01  0.62500E-01 -0.12500E+00  0.00000E+00  0.00000E+00  0.00000E+00    0.22397E+02  0.16559E+02 -0.38957E+02 -0.19794E+01  0.22197E+01  0.10696E+02      982.00
  0.14166E+00  0.61869E+02    0.75000E-01  0.75000E-01 -0.15000E+00  0.00000E+00  0.00000E+00  0.00000E+00    0.22679E+02  0.16400E+02 -0.39078E+02 -0.19082E+01  0.24875E+01  0.10531E+02      982.00
  0.16534E+00  0.62052E+02    0.87500E-01  0.87500E-01 -0.17500E+00  0.00000E+00  0.00000E+00  0.00000E+00    0.22979E+02  0.16234E+02 -0.39214E+02 -0.18337E+01  0.27271E+01  0.10395E+02      982.00
  0.18904E+00  0.62272E+02    0.10000E+00  0.10000E+00 -0.20000E+00  0.00000E+00  0.00000E+00  0.00000E+00    0.23282E+02  0.16078E+02 -0.39360E+02 -0.17650E+01  0.29317E+01  0.10295E+02      982.00
  0.21274E+00  0.62522E+02    0.11250E+00  0.11250E+00 -0.22500E+00  0.00000E+00  0.00000E+00  0.00000E+00    0.23585E+02  0.15932E+02 -0.39517E+02 -0.17120E+01  0.31067E+01  0.10225E+02      982.00
  0.23645E+00  0.62797E+02    0.12500E+00  0.12500E+00 -0.25000E+00  0.00000E+00  0.00000E+00  0.00000E+00    0.23884E+02  0.15799E+02 -0.39683E+02 -0.16773E+01  0.32553E+01  0.10182E+02      982.00
  0.26014E+00  0.63087E+02    0.13750E+00  0.13750E+00 -0.27500E+00  0.00000E+00  0.00000E+00  0.00000E+00    0.24180E+02  0.15675E+02 -0.39855E+02 -0.16629E+01  0.33799E+01  0.10153E+02      982.00
  0.28383E+00  0.63394E+02    0.15000E+00  0.15000E+00 -0.30000E+00  0.00000E+00  0.00000E+00  0.00000E+00    0.24462E+02  0.15570E+02 -0.40033E+02 -0.16619E+01  0.34830E+01  0.10148E+02      982.00
  0.30751E+00  0.63707E+02    0.16250E+00  0.16250E+00 -0.32500E+00  0.00000E+00  0.00000E+00  0.00000E+00    0.24733E+02  0.15479E+02 -0.40212E+02 -0.16748E+01  0.35666E+01  0.10158E+02      982.00
  0.33118E+00  0.64022E+02    0.17500E+00  0.17500E+00 -0.35000E+00  0.00000E+00  0.00000E+00  0.00000E+00    0.24991E+02  0.15400E+02 -0.40391E+02 -0.16992E+01  0.36314E+01  0.10179E+02      982.00
  0.35484E+00  0.64326E+02    0.18750E+00  0.18750E+00 -0.37500E+00  0.00000E+00  0.00000E+00  0.00000E+00    0.25241E+02  0.15323E+02 -0.40564E+02 -0.17348E+01  0.36756E+01  0.10201E+02      982.00
  0.37849E+00  0.64630E+02    0.20000E+00  0.20000E+00 -0.40000E+00  0.00000E+00  0.00000E+00  0.00000E+00    0.25472E+02  0.15265E+02 -0.40737E+02 -0.17761E+01  0.37044E+01  0.10238E+02      982.00
  0.40213E+00  0.64923E+02    0.21250E+00  0.21250E+00 -0.42500E+00  0.00000E+00  0.00000E+00  0.00000E+00    0.25686E+02  0.15217E+02 -0.40903E+02 -0.18234E+01  0.37161E+01  0.10280E+02      982.00
  0.42575E+00  0.65197E+02    0.22500E+00  0.22500E+00 -0.45000E+00  0.00000E+00  0.00000E+00  0.00000E+00    0.25890E+02  0.15168E+02 -0.41058E+02 -0.18775E+01  0.37073E+01  0.10321E+02      982.00
  0.44937E+00  0.65466E+02    0.23750E+00  0.23750E+00 -0.47500E+00  0.00000E+00  0.00000E+00  0.00000E+00    0.26073E+02  0.15139E+02 -0.41212E+02 -0.19330E+01  0.36865E+01  0.10373E+02      982.00
  0.47298E+00  0.65723E+02    0.25000E+00  0.25000E+00 -0.50000E+00  0.00000E+00  0.00000E+00  0.00000E+00    0.26237E+02  0.15122E+02 -0.41358E+02 -0.19908E+01  0.36516E+01  0.10428E+02      982.00
  0.49657E+00  0.65952E+02    0.26250E+00  0.26250E+00 -0.52500E+00  0.00000E+00  0.00000E+00  0.00000E+00    0.26384E+02  0.15108E+02 -0.41491E+02 -0.20482E+01  0.35967E+01  0.10479E+02      982.00
  0.52017E+00  0.66185E+02    0.27500E+00  0.27500E+00 -0.55000E+00  0.00000E+00  0.00000E+00  0.00000E+00    0.26514E+02  0.15113E+02 -0.41626E+02 -0.21078E+01  0.35399E+01  0.10542E+02      982.00
  0.54375E+00  0.66405E+02    0.28750E+00  0.28750E+00 -0.57500E+00  0.00000E+00  0.00000E+00  0.00000E+00    0.26627E+02  0.15128E+02 -0.41755E+02 -0.21663E+01  0.34746E+01  0.10605E+02      982.00
  0.56733E+00  0.66611E+02    0.30000E+00  0.30000E+00 -0.60000E+00  0.00000E+00  0.00000E+00  0.00000E+00    0.26723E+02  0.15153E+02 -0.41877E+02 -0.22227E+01  0.34030E+01  0.10668E+02      982.00
  0.59091E+00  0.66790E+02    0.31250E+00  0.31250E+00 -0.62500E+00  0.00000E+00  0.00000E+00  0.00000E+00    0.26806E+02  0.15175E+02 -0.41981E+02 -0.22814E+01  0.33191E+01  0.10728E+02      982.00
  0.61448E+00  0.66978E+02    0.32500E+00  0.32500E+00 -0.65000E+00  0.00000E+00  0.00000E+00  0.00000E+00    0.26875E+02  0.15219E+02 -0.42095E+02 -0.23329E+01  0.32418E+01  0.10792E+02      982.00
  0.63804E+00  0.67156E+02    0.33750E+00  0.33750E+00 -0.67500E+00  0.00000E+00  0.00000E+00  0.00000E+00    0.26932E+02  0.15272E+02 -0.42204E+02 -0.23807E+01  0.31645E+01  0.10853E+02      982.00
  0.66161E+00  0.67325E+02    0.35000E+00  0.35000E+00 -0.70000E+00  0.00000E+00  0.00000E+00  0.00000E+00    0.26978E+02  0.15331E+02 -0.42308E+02 -0.24250E+01  0.30880E+01  0.10912E+02      982.00
  0.68518E+00  0.67485E+02    0.36250E+00  0.36250E+00 -0.72500E+00  0.00000E+00  0.00000E+00  0.00000E+00    0.27014E+02  0.15394E+02 -0.42409E+02 -0.24656E+01  0.30132E+01  0.10968E+02      982.00
  0.70874E+00  0.67637E+02    0.37500E+00  0.37500E+00 -0.75000E+00  0.00000E+00  0.00000E+00  0.00000E+00    0.27043E+02  0.15462E+02 -0.42505E+02 -0.25026E+01  0.29406E+01  0.11021E+02      982.00
  0.73231E+00  0.67781E+02    0.38750E+00  0.38750E+00 -0.77500E+00  0.00000E+00  0.00000E+00  0.00000E+00    0.27065E+02  0.15533E+02 -0.42598E+02 -0.25360E+01  0.28708E+01  0.11070E+02      982.00
  0.75588E+00  0.67916E+02    0.40000E+00  0.40000E+00 -0.80000E+00  0.00000E+00  0.00000E+00  0.00000E+00    0.27081E+02  0.15606E+02 -0.42687E+02 -0.25660E+01  0.28038E+01  0.11116E+02      982.00
  0.77945E+00  0.68045E+02    0.41250E+00  0.41250E+00 -0.82500E+00  0.00000E+00  0.00000E+00  0.00000E+00    0.27091E+02  0.15681E+02 -0.42771E+02 -0.25928E+01  0.27398E+01  0.11159E+02      982.00
  0.80302E+00  0.68166E+02    0.42500E+00  0.42500E+00 -0.85000E+00  0.00000E+00  0.00000E+00  0.00000E+00    0.27097E+02  0.15756E+02 -0.42853E+02 -0.26167E+01  0.26789E+01  0.11199E+02      982.00
  0.82659E+00  0.68280E+02    0.43750E+00  0.43750E+00 -0.87500E+00  0.00000E+00  0.00000E+00  0.00000E+00    0.27099E+02  0.15831E+02 -0.42930E+02 -0.26380E+01  0.26210E+01  0.11236E+02      982.00
  0.85017E+00  0.68388E+02    0.45000E+00  0.45000E+00 -0.90000E+00  0.00000E+00  0.00000E+00  0.00000E+00    0.27097E+02  0.15907E+02 -0.43004E+02 -0.26568E+01  0.25659E+01  0.11270E+02      982.00
  0.87375E+00  0.68489E+02    0.46250E+00  0.46250E+00 -0.92500E+00  0.00000E+00  0.00000E+00  0.00000E+00    0.27093E+02  0.15981E+02 -0.43074E+02 -0.26734E+01  0.25135E+01  0.11302E+02      982.00
  0.89733E+00  0.68585E+02    0.47500E+00  0.47500E+00 -0.95000E+00  0.00000E+00  0.00000E+00  0.00000E+00    0.27086E+02  0.16054E+02 -0.43141E+02 -0.26881E+01  0.24638E+01  0.11331E+02      982.00
  0.92092E+00  0.68674E+02    0.48750E+00  0.48750E+00 -0.97500E+00  0.00000E+00  0.00000E+00  0.00000E+00    0.27078E+02  0.16126E+02 -0.43204E+02 -0.27011E+01  0.24167E+01  0.11357E+02      982.00
  0.94451E+00  0.68759E+02    0.50000E+00  0.50000E+00 -0.10000E+01  0.00000E+00  0.00000E+00  0.00000E+00    0.27068E+02  0.16196E+02 -0.43264E+02 -0.27125E+01  0.23718E+01  0.11382E+02      982.00
