          Evm          Svm            E11          E22          E33          E23          E13          E12         SDEV11       SDEV22       SDEV33       SDEV23       SDEV13       SDEV12      TEMP
  0.00000E+00  0.48009E+02    0.00000E+00  0.00000E+00  0.00000E+00  0.00000E+00  0.00000E+00  0.00000E+00    0.16531E+02  0.14867E+02 -0.31398E+02  0.28519E+01  0.35471E+01 -0.27400E+01      982.00
  0.24525E-01  0.48204E+02    0.12500E-01  0.12500E-01 -0.25000E-01  0.00000E+00  0.00000E+00  0.00000E+00    0.16944E+02  0.14486E+02 -0.31430E+02  0.34125E+01  0.32758E+01 -0.31268E+01      982.00
  0.48976E-01  0.48463E+02    0.25000E-01  0.25000E-01 -0.50000E-01  0.00000E+00  0.00000E+00  0.00000E+00    0.17307E+02  0.14193E+02 -0.31500E+02  0.38713E+01  0.30192E+01 -0.34903E+01      982.00
  0.73350E-01  0.48791E+02    0.37500E-01  0.37500E-01 -0.75000E-01  0.00000E+00  0.00000E+00  0.00000E+00    0.17649E+02  0.13960E+02 -0.31609E+02  0.42740E+01  0.27775E+01 -0.38424E+01      982.00
  0.97644E-01  0.49184E+02    0.50000E-01  0.50000E-01 -0.10000E+00  0.00000E+00  0.00000E+00  0.00000E+00    0.17982E+02  0.13776E+02 -0.31758E+02  0.46301E+01  0.25589E+01 -0.41850E+01      982.00
  0.12186E+00  0.49644E+02    0.62500E-01  0.62500E-01 -0.12500E+00  0.00000E+00  0.00000E+00  0.00000E+00    0.18315E+02  0.13632E+02 -0.31947E+02  0.49548E+01  0.23594E+01 -0.45236E+01      982.00
  0.14599E+00  0.50170E+02    0.75000E-01  0.75000E-01 -0.15000E+00  0.00000E+00  0.00000E+00  0.00000E+00    0.18653E+02  0.13523E+02 -0.32175E+02  0.52550E+01  0.21803E+01 -0.48587E+01      982.00
  0.17004E+00  0.50755E+02    0.87500E-01  0.87500E-01 -0.17500E+00  0.00000E+00  0.00000E+00  0.00000E+00    0.19000E+02  0.13442E+02 -0.32441E+02  0.55354E+01  0.20233E+01 -0.51884E+01      982.00
  0.19401E+00  0.51395E+02    0.10000E+00  0.10000E+00 -0.20000E+00  0.00000E+00  0.00000E+00  0.00000E+00    0.19357E+02  0.13384E+02 -0.32741E+02  0.58013E+01  0.18806E+01 -0.55127E+01      982.00
  0.21790E+00  0.52079E+02    0.11250E+00  0.11250E+00 -0.22500E+00  0.00000E+00  0.00000E+00  0.00000E+00    0.19725E+02  0.13345E+02 -0.33070E+02  0.60531E+01  0.17534E+01 -0.58259E+01      982.00
  0.24171E+00  0.52796E+02    0.12500E+00  0.12500E+00 -0.25000E+00  0.00000E+00  0.00000E+00  0.00000E+00    0.20103E+02  0.13320E+02 -0.33424E+02  0.62910E+01  0.16406E+01 -0.61225E+01      982.00
  0.26545E+00  0.53533E+02    0.13750E+00  0.13750E+00 -0.27500E+00  0.00000E+00  0.00000E+00  0.00000E+00    0.20490E+02  0.13306E+02 -0.33796E+02  0.65144E+01  0.15413E+01 -0.63967E+01      982.00
  0.28913E+00  0.54280E+02    0.15000E+00  0.15000E+00 -0.30000E+00  0.00000E+00  0.00000E+00  0.00000E+00    0.20885E+02  0.13297E+02 -0.34181E+02  0.67228E+01  0.14548E+01 -0.66429E+01      982.00
  0.31274E+00  0.55026E+02    0.16250E+00  0.16250E+00 -0.32500E+00  0.00000E+00  0.00000E+00  0.00000E+00    0.21284E+02  0.13291E+02 -0.34575E+02  0.69154E+01  0.13801E+01 -0.68560E+01      982.00
  0.33630E+00  0.55762E+02    0.17500E+00  0.17500E+00 -0.35000E+00  0.00000E+00  0.00000E+00  0.00000E+00    0.21687E+02  0.13286E+02 -0.34973E+02  0.70914E+01  0.13161E+01 -0.70323E+01      982.00
  0.35982E+00  0.56479E+02    0.18750E+00  0.18750E+00 -0.37500E+00  0.00000E+00  0.00000E+00  0.00000E+00    0.22089E+02  0.13282E+02 -0.35371E+02  0.72511E+01  0.12618E+01 -0.71692E+01      982.00
  0.38331E+00  0.57169E+02    0.20000E+00  0.20000E+00 -0.40000E+00  0.00000E+00  0.00000E+00  0.00000E+00    0.22486E+02  0.13277E+02 -0.35764E+02  0.73961E+01  0.12162E+01 -0.72655E+01      982.00
  0.40677E+00  0.57828E+02    0.21250E+00  0.21250E+00 -0.42500E+00  0.00000E+00  0.00000E+00  0.00000E+00    0.22877E+02  0.13270E+02 -0.36146E+02  0.75298E+01  0.11785E+01 -0.73214E+01      982.00
  0.43021E+00  0.58454E+02    0.22500E+00  0.22500E+00 -0.45000E+00  0.00000E+00  0.00000E+00  0.00000E+00    0.23259E+02  0.13261E+02 -0.36521E+02  0.76434E+01  0.11527E+01 -0.73416E+01      982.00
  0.45364E+00  0.59048E+02    0.23750E+00  0.23750E+00 -0.47500E+00  0.00000E+00  0.00000E+00  0.00000E+00    0.23632E+02  0.13253E+02 -0.36884E+02  0.77432E+01  0.11306E+01 -0.73277E+01      982.00
  0.47706E+00  0.59607E+02    0.25000E+00  0.25000E+00 -0.50000E+00  0.00000E+00  0.00000E+00  0.00000E+00    0.23992E+02  0.13244E+02 -0.37236E+02  0.78301E+01  0.11106E+01 -0.72827E+01      982.00
  0.50049E+00  0.60133E+02    0.26250E+00  0.26250E+00 -0.52500E+00  0.00000E+00  0.00000E+00  0.00000E+00    0.24339E+02  0.13235E+02 -0.37574E+02  0.79048E+01  0.10917E+01 -0.72098E+01      982.00
  0.52392E+00  0.60628E+02    0.27500E+00  0.27500E+00 -0.55000E+00  0.00000E+00  0.00000E+00  0.00000E+00    0.24671E+02  0.13230E+02 -0.37901E+02  0.79585E+01  0.10732E+01 -0.71176E+01      982.00
  0.54736E+00  0.61090E+02    0.28750E+00  0.28750E+00 -0.57500E+00  0.00000E+00  0.00000E+00  0.00000E+00    0.24988E+02  0.13224E+02 -0.38212E+02  0.80119E+01  0.10540E+01 -0.69994E+01      982.00
  0.57082E+00  0.61522E+02    0.30000E+00  0.30000E+00 -0.60000E+00  0.00000E+00  0.00000E+00  0.00000E+00    0.25288E+02  0.13220E+02 -0.38509E+02  0.80556E+01  0.10346E+01 -0.68621E+01      982.00
  0.59429E+00  0.61924E+02    0.31250E+00  0.31250E+00 -0.62500E+00  0.00000E+00  0.00000E+00  0.00000E+00    0.25573E+02  0.13218E+02 -0.38791E+02  0.80904E+01  0.10143E+01 -0.67084E+01      982.00
  0.61778E+00  0.62300E+02    0.32500E+00  0.32500E+00 -0.65000E+00  0.00000E+00  0.00000E+00  0.00000E+00    0.25841E+02  0.13219E+02 -0.39060E+02  0.81171E+01  0.99338E+00 -0.65418E+01      982.00
  0.64129E+00  0.62649E+02    0.33750E+00  0.33750E+00 -0.67500E+00  0.00000E+00  0.00000E+00  0.00000E+00    0.26093E+02  0.13222E+02 -0.39315E+02  0.81366E+01  0.97153E+00 -0.63643E+01      982.00
  0.66482E+00  0.62967E+02    0.35000E+00  0.35000E+00 -0.70000E+00  0.00000E+00  0.00000E+00  0.00000E+00    0.26324E+02  0.13227E+02 -0.39551E+02  0.81552E+01  0.95536E+00 -0.61723E+01      982.00
  0.68838E+00  0.63271E+02    0.36250E+00  0.36250E+00 -0.72500E+00  0.00000E+00  0.00000E+00  0.00000E+00    0.26545E+02  0.13236E+02 -0.39780E+02  0.81626E+01  0.93233E+00 -0.59796E+01      982.00
  0.71196E+00  0.63553E+02    0.37500E+00  0.37500E+00 -0.75000E+00  0.00000E+00  0.00000E+00  0.00000E+00    0.26750E+02  0.13247E+02 -0.39997E+02  0.81647E+01  0.90768E+00 -0.57822E+01      982.00
  0.73556E+00  0.63816E+02    0.38750E+00  0.38750E+00 -0.77500E+00  0.00000E+00  0.00000E+00  0.00000E+00    0.26941E+02  0.13262E+02 -0.40203E+02  0.81625E+01  0.88205E+00 -0.55810E+01      982.00
  0.75918E+00  0.64061E+02    0.40000E+00  0.40000E+00 -0.80000E+00  0.00000E+00  0.00000E+00  0.00000E+00    0.27118E+02  0.13278E+02 -0.40396E+02  0.81567E+01  0.85564E+00 -0.53771E+01      982.00
  0.78283E+00  0.64282E+02    0.41250E+00  0.41250E+00 -0.82500E+00  0.00000E+00  0.00000E+00  0.00000E+00    0.27279E+02  0.13296E+02 -0.40574E+02  0.81527E+01  0.83393E+00 -0.51600E+01      982.00
  0.80650E+00  0.64495E+02    0.42500E+00  0.42500E+00 -0.85000E+00  0.00000E+00  0.00000E+00  0.00000E+00    0.27430E+02  0.13317E+02 -0.40747E+02  0.81414E+01  0.80677E+00 -0.49542E+01      982.00
  0.83019E+00  0.64684E+02    0.43750E+00  0.43750E+00 -0.87500E+00  0.00000E+00  0.00000E+00  0.00000E+00    0.27569E+02  0.13338E+02 -0.40907E+02  0.81305E+01  0.77904E+00 -0.47220E+01      982.00
  0.85391E+00  0.64869E+02    0.45000E+00  0.45000E+00 -0.90000E+00  0.00000E+00  0.00000E+00  0.00000E+00    0.27697E+02  0.13364E+02 -0.41061E+02  0.81152E+01  0.75098E+00 -0.45179E+01      982.00
  0.87764E+00  0.65042E+02    0.46250E+00  0.46250E+00 -0.92500E+00  0.00000E+00  0.00000E+00  0.00000E+00    0.27814E+02  0.13391E+02 -0.41205E+02  0.80980E+01  0.72172E+00 -0.43154E+01      982.00
  0.90140E+00  0.65200E+02    0.47500E+00  0.47500E+00 -0.95000E+00  0.00000E+00  0.00000E+00  0.00000E+00    0.27919E+02  0.13421E+02 -0.41340E+02  0.80848E+01  0.69707E+00 -0.41096E+01      982.00
  0.92518E+00  0.65290E+02    0.48750E+00  0.48750E+00 -0.97500E+00  0.00000E+00  0.00000E+00  0.00000E+00    0.27999E+02  0.13443E+02 -0.41441E+02  0.79920E+01  0.64447E+00 -0.39544E+01      982.00
  0.94898E+00  0.65371E+02    0.50000E+00  0.50000E+00 -0.10000E+01  0.00000E+00  0.00000E+00  0.00000E+00    0.28067E+02  0.13465E+02 -0.41532E+02  0.79361E+01  0.61043E+00 -0.37569E+01      982.00
