          Evm          Svm            E11          E22          E33          E23          E13          E12         SDEV11       SDEV22       SDEV33       SDEV23       SDEV13       SDEV12      TEMP
  0.00000E+00  0.59499E+02    0.00000E+00  0.00000E+00  0.00000E+00  0.00000E+00  0.00000E+00  0.00000E+00    0.20725E+02  0.14696E+02 -0.35421E+02  0.43804E+01 -0.91446E+01  0.11275E+02      982.00
  0.22325E-01  0.59806E+02    0.12500E-01  0.12500E-01 -0.25000E-01  0.00000E+00  0.00000E+00  0.00000E+00    0.20056E+02  0.15411E+02 -0.35467E+02  0.46060E+01 -0.89381E+01  0.11929E+02      982.00
  0.44564E-01  0.60262E+02    0.25000E-01  0.25000E-01 -0.50000E-01  0.00000E+00  0.00000E+00  0.00000E+00    0.19387E+02  0.16178E+02 -0.35566E+02  0.48440E+01 -0.87105E+01  0.12646E+02      982.00
  0.66696E-01  0.60789E+02    0.37500E-01  0.37500E-01 -0.75000E-01  0.00000E+00  0.00000E+00  0.00000E+00    0.18731E+02  0.16934E+02 -0.35665E+02  0.50803E+01 -0.84724E+01  0.13392E+02      982.00
  0.88697E-01  0.61295E+02    0.50000E-01  0.50000E-01 -0.10000E+00  0.00000E+00  0.00000E+00  0.00000E+00    0.18130E+02  0.17599E+02 -0.35728E+02  0.52830E+01 -0.82499E+01  0.14104E+02      982.00
  0.11056E+00  0.61705E+02    0.62500E-01  0.62500E-01 -0.12500E+00  0.00000E+00  0.00000E+00  0.00000E+00    0.17609E+02  0.18132E+02 -0.35742E+02  0.54161E+01 -0.80212E+01  0.14742E+02      982.00
  0.13228E+00  0.62015E+02    0.75000E-01  0.75000E-01 -0.15000E+00  0.00000E+00  0.00000E+00  0.00000E+00    0.17211E+02  0.18518E+02 -0.35729E+02  0.54286E+01 -0.77651E+01  0.15308E+02      982.00
  0.15388E+00  0.62275E+02    0.87500E-01  0.87500E-01 -0.17500E+00  0.00000E+00  0.00000E+00  0.00000E+00    0.16915E+02  0.18799E+02 -0.35714E+02  0.53208E+01 -0.74693E+01  0.15848E+02      982.00
  0.17539E+00  0.62515E+02    0.10000E+00  0.10000E+00 -0.20000E+00  0.00000E+00  0.00000E+00  0.00000E+00    0.16696E+02  0.19008E+02 -0.35705E+02  0.51107E+01 -0.71400E+01  0.16375E+02      982.00
  0.19681E+00  0.62754E+02    0.11250E+00  0.11250E+00 -0.22500E+00  0.00000E+00  0.00000E+00  0.00000E+00    0.16514E+02  0.19190E+02 -0.35704E+02  0.48295E+01 -0.67728E+01  0.16901E+02      982.00
  0.21814E+00  0.62992E+02    0.12500E+00  0.12500E+00 -0.25000E+00  0.00000E+00  0.00000E+00  0.00000E+00    0.16360E+02  0.19350E+02 -0.35710E+02  0.44947E+01 -0.63842E+01  0.17409E+02      982.00
  0.23940E+00  0.63231E+02    0.13750E+00  0.13750E+00 -0.27500E+00  0.00000E+00  0.00000E+00  0.00000E+00    0.16220E+02  0.19503E+02 -0.35724E+02  0.41251E+01 -0.59787E+01  0.17892E+02      982.00
  0.26059E+00  0.63469E+02    0.15000E+00  0.15000E+00 -0.30000E+00  0.00000E+00  0.00000E+00  0.00000E+00    0.16080E+02  0.19665E+02 -0.35745E+02  0.37333E+01 -0.55531E+01  0.18344E+02      982.00
  0.28171E+00  0.63702E+02    0.16250E+00  0.16250E+00 -0.32500E+00  0.00000E+00  0.00000E+00  0.00000E+00    0.15941E+02  0.19835E+02 -0.35776E+02  0.33274E+01 -0.51146E+01  0.18753E+02      982.00
  0.30277E+00  0.63926E+02    0.17500E+00  0.17500E+00 -0.35000E+00  0.00000E+00  0.00000E+00  0.00000E+00    0.15803E+02  0.20014E+02 -0.35817E+02  0.29131E+01 -0.46655E+01  0.19114E+02      982.00
  0.32378E+00  0.64134E+02    0.18750E+00  0.18750E+00 -0.37500E+00  0.00000E+00  0.00000E+00  0.00000E+00    0.15666E+02  0.20202E+02 -0.35868E+02  0.24937E+01 -0.42059E+01  0.19419E+02      982.00
  0.34475E+00  0.64331E+02    0.20000E+00  0.20000E+00 -0.40000E+00  0.00000E+00  0.00000E+00  0.00000E+00    0.15538E+02  0.20395E+02 -0.35932E+02  0.20743E+01 -0.37423E+01  0.19671E+02      982.00
  0.36570E+00  0.64511E+02    0.21250E+00  0.21250E+00 -0.42500E+00  0.00000E+00  0.00000E+00  0.00000E+00    0.15423E+02  0.20585E+02 -0.36008E+02  0.16592E+01 -0.32807E+01  0.19865E+02      982.00
  0.38663E+00  0.64673E+02    0.22500E+00  0.22500E+00 -0.45000E+00  0.00000E+00  0.00000E+00  0.00000E+00    0.15317E+02  0.20779E+02 -0.36097E+02  0.12485E+01 -0.28140E+01  0.20001E+02      982.00
  0.40756E+00  0.64819E+02    0.23750E+00  0.23750E+00 -0.47500E+00  0.00000E+00  0.00000E+00  0.00000E+00    0.15229E+02  0.20969E+02 -0.36198E+02  0.84871E+00 -0.23536E+01  0.20082E+02      982.00
  0.42850E+00  0.64951E+02    0.25000E+00  0.25000E+00 -0.50000E+00  0.00000E+00  0.00000E+00  0.00000E+00    0.15162E+02  0.21148E+02 -0.36310E+02  0.46524E+00 -0.19064E+01  0.20114E+02      982.00
  0.44946E+00  0.65071E+02    0.26250E+00  0.26250E+00 -0.52500E+00  0.00000E+00  0.00000E+00  0.00000E+00    0.15118E+02  0.21315E+02 -0.36433E+02  0.10387E+00 -0.14801E+01  0.20103E+02      982.00
  0.47046E+00  0.65182E+02    0.27500E+00  0.27500E+00 -0.55000E+00  0.00000E+00  0.00000E+00  0.00000E+00    0.15097E+02  0.21466E+02 -0.36563E+02 -0.23010E+00 -0.10817E+01  0.20056E+02      982.00
  0.49149E+00  0.65286E+02    0.28750E+00  0.28750E+00 -0.57500E+00  0.00000E+00  0.00000E+00  0.00000E+00    0.15100E+02  0.21600E+02 -0.36700E+02 -0.53291E+00 -0.71621E+00  0.19981E+02      982.00
  0.51257E+00  0.65384E+02    0.30000E+00  0.30000E+00 -0.60000E+00  0.00000E+00  0.00000E+00  0.00000E+00    0.15125E+02  0.21717E+02 -0.36841E+02 -0.80470E+00 -0.38364E+00  0.19885E+02      982.00
  0.53370E+00  0.65478E+02    0.31250E+00  0.31250E+00 -0.62500E+00  0.00000E+00  0.00000E+00  0.00000E+00    0.15169E+02  0.21817E+02 -0.36985E+02 -0.10447E+01 -0.86106E-01  0.19775E+02      982.00
  0.55489E+00  0.65572E+02    0.32500E+00  0.32500E+00 -0.65000E+00  0.00000E+00  0.00000E+00  0.00000E+00    0.15231E+02  0.21899E+02 -0.37130E+02 -0.12469E+01  0.16764E+00  0.19662E+02      982.00
  0.57612E+00  0.65663E+02    0.33750E+00  0.33750E+00 -0.67500E+00  0.00000E+00  0.00000E+00  0.00000E+00    0.15307E+02  0.21966E+02 -0.37273E+02 -0.14228E+01  0.39245E+00  0.19544E+02      982.00
  0.59741E+00  0.65755E+02    0.35000E+00  0.35000E+00 -0.70000E+00  0.00000E+00  0.00000E+00  0.00000E+00    0.15395E+02  0.22020E+02 -0.37415E+02 -0.15676E+01  0.58124E+00  0.19431E+02      982.00
  0.61874E+00  0.65841E+02    0.36250E+00  0.36250E+00 -0.72500E+00  0.00000E+00  0.00000E+00  0.00000E+00    0.15491E+02  0.22062E+02 -0.37553E+02 -0.16943E+01  0.75007E+00  0.19316E+02      982.00
  0.64013E+00  0.65932E+02    0.37500E+00  0.37500E+00 -0.75000E+00  0.00000E+00  0.00000E+00  0.00000E+00    0.15594E+02  0.22094E+02 -0.37688E+02 -0.17928E+01  0.88562E+00  0.19213E+02      982.00
  0.66157E+00  0.66016E+02    0.38750E+00  0.38750E+00 -0.77500E+00  0.00000E+00  0.00000E+00  0.00000E+00    0.15702E+02  0.22116E+02 -0.37818E+02 -0.18811E+01  0.10102E+01  0.19110E+02      982.00
  0.68305E+00  0.66103E+02    0.40000E+00  0.40000E+00 -0.80000E+00  0.00000E+00  0.00000E+00  0.00000E+00    0.15813E+02  0.22131E+02 -0.37944E+02 -0.19464E+01  0.11077E+01  0.19019E+02      982.00
  0.70458E+00  0.66184E+02    0.41250E+00  0.41250E+00 -0.82500E+00  0.00000E+00  0.00000E+00  0.00000E+00    0.15925E+02  0.22138E+02 -0.38064E+02 -0.20067E+01  0.12001E+01  0.18931E+02      982.00
  0.72614E+00  0.66265E+02    0.42500E+00  0.42500E+00 -0.85000E+00  0.00000E+00  0.00000E+00  0.00000E+00    0.16037E+02  0.22140E+02 -0.38177E+02 -0.20504E+01  0.12726E+01  0.18853E+02      982.00
  0.74775E+00  0.66345E+02    0.43750E+00  0.43750E+00 -0.87500E+00  0.00000E+00  0.00000E+00  0.00000E+00    0.16149E+02  0.22139E+02 -0.38288E+02 -0.20877E+01  0.13385E+01  0.18778E+02      982.00
  0.76939E+00  0.66419E+02    0.45000E+00  0.45000E+00 -0.90000E+00  0.00000E+00  0.00000E+00  0.00000E+00    0.16258E+02  0.22131E+02 -0.38389E+02 -0.21144E+01  0.13911E+01  0.18713E+02      982.00
  0.79106E+00  0.66490E+02    0.46250E+00  0.46250E+00 -0.92500E+00  0.00000E+00  0.00000E+00  0.00000E+00    0.16365E+02  0.22119E+02 -0.38485E+02 -0.21345E+01  0.14359E+01  0.18654E+02      982.00
  0.81277E+00  0.66556E+02    0.47500E+00  0.47500E+00 -0.95000E+00  0.00000E+00  0.00000E+00  0.00000E+00    0.16468E+02  0.22103E+02 -0.38570E+02 -0.21547E+01  0.14829E+01  0.18602E+02      982.00
  0.83450E+00  0.66620E+02    0.48750E+00  0.48750E+00 -0.97500E+00  0.00000E+00  0.00000E+00  0.00000E+00    0.16569E+02  0.22086E+02 -0.38654E+02 -0.21643E+01  0.15153E+01  0.18553E+02      982.00
  0.85626E+00  0.66682E+02    0.50000E+00  0.50000E+00 -0.10000E+01  0.00000E+00  0.00000E+00  0.00000E+00    0.16667E+02  0.22066E+02 -0.38733E+02 -0.21696E+01  0.15421E+01  0.18509E+02      982.00
