          Evm          Svm            E11          E22          E33          E23          E13          E12         SDEV11       SDEV22       SDEV33       SDEV23       SDEV13       SDEV12      TEMP
  0.00000E+00  0.62185E+02    0.00000E+00  0.00000E+00  0.00000E+00  0.00000E+00  0.00000E+00  0.00000E+00    0.22747E+02  0.17048E+02 -0.39795E+02  0.55173E+01 -0.25295E+01  0.75019E+01      982.00
  0.23998E-01  0.62249E+02    0.12500E-01  0.12500E-01 -0.25000E-01  0.00000E+00  0.00000E+00  0.00000E+00    0.23367E+02  0.16468E+02 -0.39835E+02  0.52074E+01 -0.24454E+01  0.75157E+01      982.00
  0.47996E-01  0.62316E+02    0.25000E-01  0.25000E-01 -0.50000E-01  0.00000E+00  0.00000E+00  0.00000E+00    0.23847E+02  0.16032E+02 -0.39879E+02  0.48826E+01 -0.24894E+01  0.75073E+01      982.00
  0.71994E-01  0.62392E+02    0.37500E-01  0.37500E-01 -0.75000E-01  0.00000E+00  0.00000E+00  0.00000E+00    0.24261E+02  0.15659E+02 -0.39921E+02  0.45774E+01 -0.25765E+01  0.75005E+01      982.00
  0.95988E-01  0.62507E+02    0.50000E-01  0.50000E-01 -0.10000E+00  0.00000E+00  0.00000E+00  0.00000E+00    0.24640E+02  0.15339E+02 -0.39979E+02  0.43076E+01 -0.26776E+01  0.75033E+01      982.00
  0.11997E+00  0.62648E+02    0.62500E-01  0.62500E-01 -0.12500E+00  0.00000E+00  0.00000E+00  0.00000E+00    0.24985E+02  0.15060E+02 -0.40045E+02  0.40737E+01 -0.27777E+01  0.75259E+01      982.00
  0.14394E+00  0.62832E+02    0.75000E-01  0.75000E-01 -0.15000E+00  0.00000E+00  0.00000E+00  0.00000E+00    0.25318E+02  0.14813E+02 -0.40131E+02  0.38771E+01 -0.28713E+01  0.75649E+01      982.00
  0.16789E+00  0.63057E+02    0.87500E-01  0.87500E-01 -0.17500E+00  0.00000E+00  0.00000E+00  0.00000E+00    0.25633E+02  0.14604E+02 -0.40236E+02  0.37117E+01 -0.29611E+01  0.76283E+01      982.00
  0.19182E+00  0.63304E+02    0.10000E+00  0.10000E+00 -0.20000E+00  0.00000E+00  0.00000E+00  0.00000E+00    0.25941E+02  0.14411E+02 -0.40352E+02  0.35751E+01 -0.30428E+01  0.77024E+01      982.00
  0.21573E+00  0.63577E+02    0.11250E+00  0.11250E+00 -0.22500E+00  0.00000E+00  0.00000E+00  0.00000E+00    0.26228E+02  0.14252E+02 -0.40480E+02  0.34613E+01 -0.31245E+01  0.77966E+01      982.00
  0.23960E+00  0.63864E+02    0.12500E+00  0.12500E+00 -0.25000E+00  0.00000E+00  0.00000E+00  0.00000E+00    0.26507E+02  0.14107E+02 -0.40614E+02  0.33682E+01 -0.32019E+01  0.78992E+01      982.00
  0.26345E+00  0.64171E+02    0.13750E+00  0.13750E+00 -0.27500E+00  0.00000E+00  0.00000E+00  0.00000E+00    0.26770E+02  0.13988E+02 -0.40759E+02  0.32918E+01 -0.32802E+01  0.80156E+01      982.00
  0.28727E+00  0.64487E+02    0.15000E+00  0.15000E+00 -0.30000E+00  0.00000E+00  0.00000E+00  0.00000E+00    0.27023E+02  0.13886E+02 -0.40909E+02  0.32311E+01 -0.33577E+01  0.81346E+01      982.00
  0.31106E+00  0.64789E+02    0.16250E+00  0.16250E+00 -0.32500E+00  0.00000E+00  0.00000E+00  0.00000E+00    0.27248E+02  0.13802E+02 -0.41050E+02  0.31812E+01 -0.34358E+01  0.82635E+01      982.00
  0.33482E+00  0.65090E+02    0.17500E+00  0.17500E+00 -0.35000E+00  0.00000E+00  0.00000E+00  0.00000E+00    0.27460E+02  0.13730E+02 -0.41190E+02  0.31425E+01 -0.35104E+01  0.83942E+01      982.00
  0.35855E+00  0.65373E+02    0.18750E+00  0.18750E+00 -0.37500E+00  0.00000E+00  0.00000E+00  0.00000E+00    0.27649E+02  0.13671E+02 -0.41320E+02  0.31101E+01 -0.35818E+01  0.85278E+01      982.00
  0.38225E+00  0.65664E+02    0.20000E+00  0.20000E+00 -0.40000E+00  0.00000E+00  0.00000E+00  0.00000E+00    0.27816E+02  0.13639E+02 -0.41455E+02  0.30886E+01 -0.36580E+01  0.86703E+01      982.00
  0.40592E+00  0.65926E+02    0.21250E+00  0.21250E+00 -0.42500E+00  0.00000E+00  0.00000E+00  0.00000E+00    0.27964E+02  0.13608E+02 -0.41572E+02  0.30689E+01 -0.37231E+01  0.88170E+01      982.00
  0.42957E+00  0.66192E+02    0.22500E+00  0.22500E+00 -0.45000E+00  0.00000E+00  0.00000E+00  0.00000E+00    0.28085E+02  0.13606E+02 -0.41692E+02  0.30569E+01 -0.37953E+01  0.89806E+01      982.00
  0.45319E+00  0.66431E+02    0.23750E+00  0.23750E+00 -0.47500E+00  0.00000E+00  0.00000E+00  0.00000E+00    0.28173E+02  0.13627E+02 -0.41800E+02  0.30523E+01 -0.38579E+01  0.91386E+01      982.00
  0.47679E+00  0.66626E+02    0.25000E+00  0.25000E+00 -0.50000E+00  0.00000E+00  0.00000E+00  0.00000E+00    0.28221E+02  0.13666E+02 -0.41886E+02  0.30664E+01 -0.39208E+01  0.92787E+01      982.00
  0.50036E+00  0.66806E+02    0.26250E+00  0.26250E+00 -0.52500E+00  0.00000E+00  0.00000E+00  0.00000E+00    0.28263E+02  0.13702E+02 -0.41965E+02  0.30873E+01 -0.39757E+01  0.94084E+01      982.00
  0.52392E+00  0.66978E+02    0.27500E+00  0.27500E+00 -0.55000E+00  0.00000E+00  0.00000E+00  0.00000E+00    0.28287E+02  0.13749E+02 -0.42036E+02  0.31105E+01 -0.40225E+01  0.95598E+01      982.00
  0.54745E+00  0.67135E+02    0.28750E+00  0.28750E+00 -0.57500E+00  0.00000E+00  0.00000E+00  0.00000E+00    0.28282E+02  0.13820E+02 -0.42102E+02  0.31384E+01 -0.40601E+01  0.97113E+01      982.00
  0.57097E+00  0.67277E+02    0.30000E+00  0.30000E+00 -0.60000E+00  0.00000E+00  0.00000E+00  0.00000E+00    0.28255E+02  0.13907E+02 -0.42162E+02  0.31710E+01 -0.40883E+01  0.98636E+01      982.00
  0.59447E+00  0.67406E+02    0.31250E+00  0.31250E+00 -0.62500E+00  0.00000E+00  0.00000E+00  0.00000E+00    0.28218E+02  0.13996E+02 -0.42214E+02  0.32107E+01 -0.41085E+01  0.10013E+02      982.00
  0.61796E+00  0.67507E+02    0.32500E+00  0.32500E+00 -0.65000E+00  0.00000E+00  0.00000E+00  0.00000E+00    0.28140E+02  0.14113E+02 -0.42253E+02  0.32525E+01 -0.41219E+01  0.10163E+02      982.00
  0.64143E+00  0.67604E+02    0.33750E+00  0.33750E+00 -0.67500E+00  0.00000E+00  0.00000E+00  0.00000E+00    0.28056E+02  0.14237E+02 -0.42293E+02  0.32988E+01 -0.41268E+01  0.10309E+02      982.00
  0.66489E+00  0.67688E+02    0.35000E+00  0.35000E+00 -0.70000E+00  0.00000E+00  0.00000E+00  0.00000E+00    0.27957E+02  0.14369E+02 -0.42327E+02  0.33465E+01 -0.41252E+01  0.10449E+02      982.00
  0.68834E+00  0.67761E+02    0.36250E+00  0.36250E+00 -0.72500E+00  0.00000E+00  0.00000E+00  0.00000E+00    0.27848E+02  0.14507E+02 -0.42355E+02  0.33954E+01 -0.41177E+01  0.10587E+02      982.00
  0.71178E+00  0.67829E+02    0.37500E+00  0.37500E+00 -0.75000E+00  0.00000E+00  0.00000E+00  0.00000E+00    0.27731E+02  0.14653E+02 -0.42383E+02  0.34435E+01 -0.41054E+01  0.10718E+02      982.00
  0.73521E+00  0.67892E+02    0.38750E+00  0.38750E+00 -0.77500E+00  0.00000E+00  0.00000E+00  0.00000E+00    0.27607E+02  0.14802E+02 -0.42410E+02  0.34924E+01 -0.40908E+01  0.10843E+02      982.00
  0.75863E+00  0.67940E+02    0.40000E+00  0.40000E+00 -0.80000E+00  0.00000E+00  0.00000E+00  0.00000E+00    0.27467E+02  0.14964E+02 -0.42431E+02  0.35402E+01 -0.40695E+01  0.10961E+02      982.00
  0.78206E+00  0.67990E+02    0.41250E+00  0.41250E+00 -0.82500E+00  0.00000E+00  0.00000E+00  0.00000E+00    0.27338E+02  0.15114E+02 -0.42452E+02  0.35850E+01 -0.40519E+01  0.11073E+02      982.00
  0.80547E+00  0.68037E+02    0.42500E+00  0.42500E+00 -0.85000E+00  0.00000E+00  0.00000E+00  0.00000E+00    0.27211E+02  0.15261E+02 -0.42473E+02  0.36284E+01 -0.40331E+01  0.11177E+02      982.00
  0.82888E+00  0.68078E+02    0.43750E+00  0.43750E+00 -0.87500E+00  0.00000E+00  0.00000E+00  0.00000E+00    0.27086E+02  0.15404E+02 -0.42490E+02  0.36694E+01 -0.40136E+01  0.11275E+02      982.00
  0.85228E+00  0.68113E+02    0.45000E+00  0.45000E+00 -0.90000E+00  0.00000E+00  0.00000E+00  0.00000E+00    0.26953E+02  0.15552E+02 -0.42506E+02  0.37102E+01 -0.39890E+01  0.11368E+02      982.00
  0.87569E+00  0.68157E+02    0.46250E+00  0.46250E+00 -0.92500E+00  0.00000E+00  0.00000E+00  0.00000E+00    0.26839E+02  0.15688E+02 -0.42526E+02  0.37470E+01 -0.39707E+01  0.11453E+02      982.00
  0.89908E+00  0.68193E+02    0.47500E+00  0.47500E+00 -0.95000E+00  0.00000E+00  0.00000E+00  0.00000E+00    0.26725E+02  0.15818E+02 -0.42544E+02  0.37806E+01 -0.39513E+01  0.11532E+02      982.00
  0.92248E+00  0.68178E+02    0.48750E+00  0.48750E+00 -0.97500E+00  0.00000E+00  0.00000E+00  0.00000E+00    0.26599E+02  0.15932E+02 -0.42531E+02  0.38029E+01 -0.39233E+01  0.11597E+02      982.00
  0.94587E+00  0.68172E+02    0.50000E+00  0.50000E+00 -0.10000E+01  0.00000E+00  0.00000E+00  0.00000E+00    0.26484E+02  0.16041E+02 -0.42525E+02  0.38232E+01 -0.38978E+01  0.11653E+02      982.00
