          Evm          Svm            E11          E22          E33          E23          E13          E12         SDEV11       SDEV22       SDEV33       SDEV23       SDEV13       SDEV12      TEMP
  0.00000E+00  0.62657E+02    0.00000E+00  0.00000E+00  0.00000E+00  0.00000E+00  0.00000E+00  0.00000E+00    0.22465E+02  0.18334E+02 -0.40799E+02  0.18401E+01 -0.43646E+01  0.57871E+01      982.00
  0.24418E-01  0.63064E+02    0.12500E-01  0.12500E-01 -0.25000E-01  0.00000E+00  0.00000E+00  0.00000E+00    0.21526E+02  0.19508E+02 -0.41034E+02  0.21305E+01 -0.43219E+01  0.62137E+01      982.00
  0.48818E-01  0.63492E+02    0.25000E-01  0.25000E-01 -0.50000E-01  0.00000E+00  0.00000E+00  0.00000E+00    0.20576E+02  0.20682E+02 -0.41258E+02  0.23555E+01 -0.42533E+01  0.65899E+01      982.00
  0.73187E-01  0.63855E+02    0.37500E-01  0.37500E-01 -0.75000E-01  0.00000E+00  0.00000E+00  0.00000E+00    0.19768E+02  0.21665E+02 -0.41433E+02  0.24449E+01 -0.41653E+01  0.68873E+01      982.00
  0.97519E-01  0.64153E+02    0.50000E-01  0.50000E-01 -0.10000E+00  0.00000E+00  0.00000E+00  0.00000E+00    0.19153E+02  0.22415E+02 -0.41568E+02  0.24094E+01 -0.40654E+01  0.71375E+01      982.00
  0.12182E+00  0.64415E+02    0.62500E-01  0.62500E-01 -0.12500E+00  0.00000E+00  0.00000E+00  0.00000E+00    0.18718E+02  0.22967E+02 -0.41685E+02  0.22899E+01 -0.39621E+01  0.73749E+01      982.00
  0.14608E+00  0.64675E+02    0.75000E-01  0.75000E-01 -0.15000E+00  0.00000E+00  0.00000E+00  0.00000E+00    0.18411E+02  0.23391E+02 -0.41802E+02  0.21334E+01 -0.38591E+01  0.76208E+01      982.00
  0.17032E+00  0.64953E+02    0.87500E-01  0.87500E-01 -0.17500E+00  0.00000E+00  0.00000E+00  0.00000E+00    0.18192E+02  0.23737E+02 -0.41929E+02  0.19692E+01 -0.37595E+01  0.78781E+01      982.00
  0.19453E+00  0.65249E+02    0.10000E+00  0.10000E+00 -0.20000E+00  0.00000E+00  0.00000E+00  0.00000E+00    0.18047E+02  0.24020E+02 -0.42067E+02  0.18042E+01 -0.36684E+01  0.81444E+01      982.00
  0.21871E+00  0.65565E+02    0.11250E+00  0.11250E+00 -0.22500E+00  0.00000E+00  0.00000E+00  0.00000E+00    0.17949E+02  0.24264E+02 -0.42214E+02  0.16497E+01 -0.35861E+01  0.84182E+01      982.00
  0.24285E+00  0.65896E+02    0.12500E+00  0.12500E+00 -0.25000E+00  0.00000E+00  0.00000E+00  0.00000E+00    0.17897E+02  0.24473E+02 -0.42370E+02  0.15032E+01 -0.35154E+01  0.86934E+01      982.00
  0.26696E+00  0.66241E+02    0.13750E+00  0.13750E+00 -0.27500E+00  0.00000E+00  0.00000E+00  0.00000E+00    0.17863E+02  0.24669E+02 -0.42532E+02  0.13753E+01 -0.34530E+01  0.89714E+01      982.00
  0.29104E+00  0.66592E+02    0.15000E+00  0.15000E+00 -0.30000E+00  0.00000E+00  0.00000E+00  0.00000E+00    0.17848E+02  0.24848E+02 -0.42696E+02  0.12606E+01 -0.33988E+01  0.92508E+01      982.00
  0.31508E+00  0.66934E+02    0.16250E+00  0.16250E+00 -0.32500E+00  0.00000E+00  0.00000E+00  0.00000E+00    0.17856E+02  0.25002E+02 -0.42858E+02  0.11585E+01 -0.33546E+01  0.95104E+01      982.00
  0.33909E+00  0.67255E+02    0.17500E+00  0.17500E+00 -0.35000E+00  0.00000E+00  0.00000E+00  0.00000E+00    0.17864E+02  0.25140E+02 -0.43004E+02  0.10746E+01 -0.33156E+01  0.97661E+01      982.00
  0.36307E+00  0.67574E+02    0.18750E+00  0.18750E+00 -0.37500E+00  0.00000E+00  0.00000E+00  0.00000E+00    0.17890E+02  0.25262E+02 -0.43153E+02  0.99862E+00 -0.32826E+01  0.10006E+02      982.00
  0.38702E+00  0.67905E+02    0.20000E+00  0.20000E+00 -0.40000E+00  0.00000E+00  0.00000E+00  0.00000E+00    0.17920E+02  0.25381E+02 -0.43301E+02  0.93137E+00 -0.32517E+01  0.10268E+02      982.00
  0.41093E+00  0.68183E+02    0.21250E+00  0.21250E+00 -0.42500E+00  0.00000E+00  0.00000E+00  0.00000E+00    0.17955E+02  0.25472E+02 -0.43427E+02  0.88005E+00 -0.32246E+01  0.10486E+02      982.00
  0.43482E+00  0.68440E+02    0.22500E+00  0.22500E+00 -0.45000E+00  0.00000E+00  0.00000E+00  0.00000E+00    0.17992E+02  0.25548E+02 -0.43540E+02  0.83903E+00 -0.31997E+01  0.10693E+02      982.00
  0.45867E+00  0.68674E+02    0.23750E+00  0.23750E+00 -0.47500E+00  0.00000E+00  0.00000E+00  0.00000E+00    0.18031E+02  0.25610E+02 -0.43641E+02  0.80793E+00 -0.31761E+01  0.10889E+02      982.00
  0.48250E+00  0.68857E+02    0.25000E+00  0.25000E+00 -0.50000E+00  0.00000E+00  0.00000E+00  0.00000E+00    0.18068E+02  0.25649E+02 -0.43716E+02  0.79074E+00 -0.31552E+01  0.11051E+02      982.00
  0.50631E+00  0.69055E+02    0.26250E+00  0.26250E+00 -0.52500E+00  0.00000E+00  0.00000E+00  0.00000E+00    0.18110E+02  0.25687E+02 -0.43797E+02  0.77548E+00 -0.31339E+01  0.11229E+02      982.00
  0.53010E+00  0.69230E+02    0.27500E+00  0.27500E+00 -0.55000E+00  0.00000E+00  0.00000E+00  0.00000E+00    0.18153E+02  0.25713E+02 -0.43866E+02  0.76883E+00 -0.31139E+01  0.11397E+02      982.00
  0.55386E+00  0.69386E+02    0.28750E+00  0.28750E+00 -0.57500E+00  0.00000E+00  0.00000E+00  0.00000E+00    0.18193E+02  0.25733E+02 -0.43926E+02  0.76639E+00 -0.31012E+01  0.11545E+02      982.00
  0.57760E+00  0.69531E+02    0.30000E+00  0.30000E+00 -0.60000E+00  0.00000E+00  0.00000E+00  0.00000E+00    0.18234E+02  0.25744E+02 -0.43978E+02  0.77089E+00 -0.30852E+01  0.11693E+02      982.00
  0.60132E+00  0.69661E+02    0.31250E+00  0.31250E+00 -0.62500E+00  0.00000E+00  0.00000E+00  0.00000E+00    0.18277E+02  0.25747E+02 -0.44024E+02  0.77975E+00 -0.30718E+01  0.11833E+02      982.00
  0.62501E+00  0.69778E+02    0.32500E+00  0.32500E+00 -0.65000E+00  0.00000E+00  0.00000E+00  0.00000E+00    0.18319E+02  0.25744E+02 -0.44062E+02  0.79237E+00 -0.30613E+01  0.11962E+02      982.00
  0.64869E+00  0.69882E+02    0.33750E+00  0.33750E+00 -0.67500E+00  0.00000E+00  0.00000E+00  0.00000E+00    0.18359E+02  0.25735E+02 -0.44095E+02  0.80812E+00 -0.30542E+01  0.12083E+02      982.00
  0.67236E+00  0.69976E+02    0.35000E+00  0.35000E+00 -0.70000E+00  0.00000E+00  0.00000E+00  0.00000E+00    0.18399E+02  0.25723E+02 -0.44122E+02  0.82646E+00 -0.30506E+01  0.12196E+02      982.00
  0.69600E+00  0.70056E+02    0.36250E+00  0.36250E+00 -0.72500E+00  0.00000E+00  0.00000E+00  0.00000E+00    0.18436E+02  0.25707E+02 -0.44143E+02  0.84686E+00 -0.30506E+01  0.12299E+02      982.00
  0.71963E+00  0.70133E+02    0.37500E+00  0.37500E+00 -0.75000E+00  0.00000E+00  0.00000E+00  0.00000E+00    0.18481E+02  0.25682E+02 -0.44164E+02  0.87037E+00 -0.30500E+01  0.12397E+02      982.00
  0.74324E+00  0.70200E+02    0.38750E+00  0.38750E+00 -0.77500E+00  0.00000E+00  0.00000E+00  0.00000E+00    0.18515E+02  0.25664E+02 -0.44178E+02  0.89436E+00 -0.30585E+01  0.12488E+02      982.00
  0.76684E+00  0.70260E+02    0.40000E+00  0.40000E+00 -0.80000E+00  0.00000E+00  0.00000E+00  0.00000E+00    0.18544E+02  0.25646E+02 -0.44190E+02  0.91997E+00 -0.30708E+01  0.12572E+02      982.00
  0.79043E+00  0.70322E+02    0.41250E+00  0.41250E+00 -0.82500E+00  0.00000E+00  0.00000E+00  0.00000E+00    0.18579E+02  0.25618E+02 -0.44198E+02  0.95225E+00 -0.30858E+01  0.12668E+02      982.00
  0.81400E+00  0.70369E+02    0.42500E+00  0.42500E+00 -0.85000E+00  0.00000E+00  0.00000E+00  0.00000E+00    0.18603E+02  0.25599E+02 -0.44202E+02  0.98155E+00 -0.31069E+01  0.12743E+02      982.00
  0.83755E+00  0.70412E+02    0.43750E+00  0.43750E+00 -0.87500E+00  0.00000E+00  0.00000E+00  0.00000E+00    0.18621E+02  0.25583E+02 -0.44203E+02  0.10121E+01 -0.31320E+01  0.12814E+02      982.00
  0.86110E+00  0.70450E+02    0.45000E+00  0.45000E+00 -0.90000E+00  0.00000E+00  0.00000E+00  0.00000E+00    0.18634E+02  0.25567E+02 -0.44201E+02  0.10442E+01 -0.31610E+01  0.12882E+02      982.00
  0.88462E+00  0.70484E+02    0.46250E+00  0.46250E+00 -0.92500E+00  0.00000E+00  0.00000E+00  0.00000E+00    0.18644E+02  0.25553E+02 -0.44197E+02  0.10778E+01 -0.31938E+01  0.12949E+02      982.00
  0.90814E+00  0.70468E+02    0.47500E+00  0.47500E+00 -0.95000E+00  0.00000E+00  0.00000E+00  0.00000E+00    0.18634E+02  0.25529E+02 -0.44163E+02  0.11140E+01 -0.32199E+01  0.12999E+02      982.00
  0.93164E+00  0.70452E+02    0.48750E+00  0.48750E+00 -0.97500E+00  0.00000E+00  0.00000E+00  0.00000E+00    0.18625E+02  0.25504E+02 -0.44129E+02  0.11495E+01 -0.32531E+01  0.13048E+02      982.00
  0.95513E+00  0.70435E+02    0.50000E+00  0.50000E+00 -0.10000E+01  0.00000E+00  0.00000E+00  0.00000E+00    0.18612E+02  0.25480E+02 -0.44093E+02  0.11862E+01 -0.32904E+01  0.13098E+02      982.00
