          Evm          Svm            E11          E22          E33          E23          E13          E12         SDEV11       SDEV22       SDEV33       SDEV23       SDEV13       SDEV12      TEMP
  0.00000E+00  0.57064E+02    0.00000E+00  0.00000E+00  0.00000E+00  0.00000E+00  0.00000E+00  0.00000E+00    0.16872E+02  0.17490E+02 -0.34362E+02 -0.33111E+01  0.25874E+01  0.13496E+02      982.00
  0.22581E-01  0.57143E+02    0.12500E-01  0.12500E-01 -0.25000E-01  0.00000E+00  0.00000E+00  0.00000E+00    0.16956E+02  0.17419E+02 -0.34376E+02 -0.32023E+01  0.25854E+01  0.13609E+02      982.00
  0.45140E-01  0.57308E+02    0.25000E-01  0.25000E-01 -0.50000E-01  0.00000E+00  0.00000E+00  0.00000E+00    0.17040E+02  0.17385E+02 -0.34425E+02 -0.31048E+01  0.25599E+01  0.13773E+02      982.00
  0.67666E-01  0.57541E+02    0.37500E-01  0.37500E-01 -0.75000E-01  0.00000E+00  0.00000E+00  0.00000E+00    0.17120E+02  0.17385E+02 -0.34505E+02 -0.30122E+01  0.25205E+01  0.13974E+02      982.00
  0.90153E-01  0.57837E+02    0.50000E-01  0.50000E-01 -0.10000E+00  0.00000E+00  0.00000E+00  0.00000E+00    0.17199E+02  0.17413E+02 -0.34612E+02 -0.29207E+01  0.24676E+01  0.14210E+02      982.00
  0.11259E+00  0.58192E+02    0.62500E-01  0.62500E-01 -0.12500E+00  0.00000E+00  0.00000E+00  0.00000E+00    0.17277E+02  0.17465E+02 -0.34743E+02 -0.28277E+01  0.24017E+01  0.14482E+02      982.00
  0.13498E+00  0.58582E+02    0.75000E-01  0.75000E-01 -0.15000E+00  0.00000E+00  0.00000E+00  0.00000E+00    0.17353E+02  0.17539E+02 -0.34892E+02 -0.27516E+01  0.23378E+01  0.14759E+02      982.00
  0.15732E+00  0.59000E+02    0.87500E-01  0.87500E-01 -0.17500E+00  0.00000E+00  0.00000E+00  0.00000E+00    0.17432E+02  0.17625E+02 -0.35057E+02 -0.26806E+01  0.22735E+01  0.15041E+02      982.00
  0.17960E+00  0.59433E+02    0.10000E+00  0.10000E+00 -0.20000E+00  0.00000E+00  0.00000E+00  0.00000E+00    0.17513E+02  0.17719E+02 -0.35231E+02 -0.26150E+01  0.22113E+01  0.15321E+02      982.00
  0.20183E+00  0.59869E+02    0.11250E+00  0.11250E+00 -0.22500E+00  0.00000E+00  0.00000E+00  0.00000E+00    0.17595E+02  0.17817E+02 -0.35412E+02 -0.25551E+01  0.21527E+01  0.15591E+02      982.00
  0.22401E+00  0.60300E+02    0.12500E+00  0.12500E+00 -0.25000E+00  0.00000E+00  0.00000E+00  0.00000E+00    0.17679E+02  0.17915E+02 -0.35594E+02 -0.25011E+01  0.20986E+01  0.15848E+02      982.00
  0.24615E+00  0.60718E+02    0.13750E+00  0.13750E+00 -0.27500E+00  0.00000E+00  0.00000E+00  0.00000E+00    0.17763E+02  0.18012E+02 -0.35775E+02 -0.24530E+01  0.20496E+01  0.16087E+02      982.00
  0.26824E+00  0.61117E+02    0.15000E+00  0.15000E+00 -0.30000E+00  0.00000E+00  0.00000E+00  0.00000E+00    0.17846E+02  0.18105E+02 -0.35951E+02 -0.24106E+01  0.20056E+01  0.16306E+02      982.00
  0.29030E+00  0.61493E+02    0.16250E+00  0.16250E+00 -0.32500E+00  0.00000E+00  0.00000E+00  0.00000E+00    0.17927E+02  0.18193E+02 -0.36120E+02 -0.23733E+01  0.19666E+01  0.16506E+02      982.00
  0.31233E+00  0.61860E+02    0.17500E+00  0.17500E+00 -0.35000E+00  0.00000E+00  0.00000E+00  0.00000E+00    0.18008E+02  0.18277E+02 -0.36284E+02 -0.23305E+01  0.19213E+01  0.16703E+02      982.00
  0.33432E+00  0.62183E+02    0.18750E+00  0.18750E+00 -0.37500E+00  0.00000E+00  0.00000E+00  0.00000E+00    0.18085E+02  0.18352E+02 -0.36437E+02 -0.23030E+01  0.18917E+01  0.16861E+02      982.00
  0.35630E+00  0.62481E+02    0.20000E+00  0.20000E+00 -0.40000E+00  0.00000E+00  0.00000E+00  0.00000E+00    0.18160E+02  0.18419E+02 -0.36579E+02 -0.22792E+01  0.18664E+01  0.17002E+02      982.00
  0.37825E+00  0.62755E+02    0.21250E+00  0.21250E+00 -0.42500E+00  0.00000E+00  0.00000E+00  0.00000E+00    0.18233E+02  0.18480E+02 -0.36713E+02 -0.22585E+01  0.18443E+01  0.17126E+02      982.00
  0.40019E+00  0.63001E+02    0.22500E+00  0.22500E+00 -0.45000E+00  0.00000E+00  0.00000E+00  0.00000E+00    0.18299E+02  0.18531E+02 -0.36830E+02 -0.22345E+01  0.18181E+01  0.17245E+02      982.00
  0.42211E+00  0.63235E+02    0.23750E+00  0.23750E+00 -0.47500E+00  0.00000E+00  0.00000E+00  0.00000E+00    0.18369E+02  0.18584E+02 -0.36953E+02 -0.22242E+01  0.18072E+01  0.17336E+02      982.00
  0.44403E+00  0.63438E+02    0.25000E+00  0.25000E+00 -0.50000E+00  0.00000E+00  0.00000E+00  0.00000E+00    0.18431E+02  0.18622E+02 -0.37052E+02 -0.22056E+01  0.17871E+01  0.17428E+02      982.00
  0.46593E+00  0.63631E+02    0.26250E+00  0.26250E+00 -0.52500E+00  0.00000E+00  0.00000E+00  0.00000E+00    0.18494E+02  0.18660E+02 -0.37153E+02 -0.21938E+01  0.17746E+01  0.17504E+02      982.00
  0.48782E+00  0.63807E+02    0.27500E+00  0.27500E+00 -0.55000E+00  0.00000E+00  0.00000E+00  0.00000E+00    0.18554E+02  0.18693E+02 -0.37246E+02 -0.21834E+01  0.17636E+01  0.17571E+02      982.00
  0.50971E+00  0.63968E+02    0.28750E+00  0.28750E+00 -0.57500E+00  0.00000E+00  0.00000E+00  0.00000E+00    0.18611E+02  0.18721E+02 -0.37332E+02 -0.21741E+01  0.17538E+01  0.17631E+02      982.00
  0.53160E+00  0.64115E+02    0.30000E+00  0.30000E+00 -0.60000E+00  0.00000E+00  0.00000E+00  0.00000E+00    0.18666E+02  0.18746E+02 -0.37412E+02 -0.21659E+01  0.17452E+01  0.17685E+02      982.00
  0.55348E+00  0.64287E+02    0.31250E+00  0.31250E+00 -0.62500E+00  0.00000E+00  0.00000E+00  0.00000E+00    0.18735E+02  0.18768E+02 -0.37503E+02 -0.21519E+01  0.17305E+01  0.17751E+02      982.00
  0.57536E+00  0.64376E+02    0.32500E+00  0.32500E+00 -0.65000E+00  0.00000E+00  0.00000E+00  0.00000E+00    0.18771E+02  0.18784E+02 -0.37555E+02 -0.21513E+01  0.17297E+01  0.17777E+02      982.00
  0.59724E+00  0.64518E+02    0.33750E+00  0.33750E+00 -0.67500E+00  0.00000E+00  0.00000E+00  0.00000E+00    0.18834E+02  0.18798E+02 -0.37632E+02 -0.21406E+01  0.17184E+01  0.17829E+02      982.00
  0.61911E+00  0.64621E+02    0.35000E+00  0.35000E+00 -0.70000E+00  0.00000E+00  0.00000E+00  0.00000E+00    0.18882E+02  0.18808E+02 -0.37690E+02 -0.21346E+01  0.17120E+01  0.17863E+02      982.00
  0.64098E+00  0.64715E+02    0.36250E+00  0.36250E+00 -0.72500E+00  0.00000E+00  0.00000E+00  0.00000E+00    0.18927E+02  0.18816E+02 -0.37743E+02 -0.21304E+01  0.17074E+01  0.17893E+02      982.00
  0.66285E+00  0.64777E+02    0.37500E+00  0.37500E+00 -0.75000E+00  0.00000E+00  0.00000E+00  0.00000E+00    0.18960E+02  0.18817E+02 -0.37777E+02 -0.21302E+01  0.17064E+01  0.17913E+02      982.00
  0.68472E+00  0.64863E+02    0.38750E+00  0.38750E+00 -0.77500E+00  0.00000E+00  0.00000E+00  0.00000E+00    0.19003E+02  0.18824E+02 -0.37827E+02 -0.21277E+01  0.17033E+01  0.17939E+02      982.00
  0.70659E+00  0.64940E+02    0.40000E+00  0.40000E+00 -0.80000E+00  0.00000E+00  0.00000E+00  0.00000E+00    0.19044E+02  0.18827E+02 -0.37871E+02 -0.21248E+01  0.16997E+01  0.17962E+02      982.00
  0.72846E+00  0.65012E+02    0.41250E+00  0.41250E+00 -0.82500E+00  0.00000E+00  0.00000E+00  0.00000E+00    0.19084E+02  0.18829E+02 -0.37913E+02 -0.21222E+01  0.16963E+01  0.17983E+02      982.00
  0.75033E+00  0.65079E+02    0.42500E+00  0.42500E+00 -0.85000E+00  0.00000E+00  0.00000E+00  0.00000E+00    0.19122E+02  0.18829E+02 -0.37952E+02 -0.21200E+01  0.16932E+01  0.18003E+02      982.00
  0.77220E+00  0.65141E+02    0.43750E+00  0.43750E+00 -0.87500E+00  0.00000E+00  0.00000E+00  0.00000E+00    0.19160E+02  0.18828E+02 -0.37988E+02 -0.21181E+01  0.16905E+01  0.18022E+02      982.00
  0.79407E+00  0.65200E+02    0.45000E+00  0.45000E+00 -0.90000E+00  0.00000E+00  0.00000E+00  0.00000E+00    0.19196E+02  0.18826E+02 -0.38022E+02 -0.21167E+01  0.16879E+01  0.18038E+02      982.00
  0.81593E+00  0.65282E+02    0.46250E+00  0.46250E+00 -0.92500E+00  0.00000E+00  0.00000E+00  0.00000E+00    0.19255E+02  0.18814E+02 -0.38068E+02 -0.21121E+01  0.16816E+01  0.18065E+02      982.00
  0.83780E+00  0.65305E+02    0.47500E+00  0.47500E+00 -0.95000E+00  0.00000E+00  0.00000E+00  0.00000E+00    0.19267E+02  0.18816E+02 -0.38083E+02 -0.21135E+01  0.16828E+01  0.18069E+02      982.00
  0.85967E+00  0.65377E+02    0.48750E+00  0.48750E+00 -0.97500E+00  0.00000E+00  0.00000E+00  0.00000E+00    0.19322E+02  0.18802E+02 -0.38123E+02 -0.21109E+01  0.16780E+01  0.18092E+02      982.00
  0.88154E+00  0.65367E+02    0.50000E+00  0.50000E+00 -0.10000E+01  0.00000E+00  0.00000E+00  0.00000E+00    0.19302E+02  0.18815E+02 -0.38117E+02 -0.21129E+01  0.16819E+01  0.18090E+02      982.00
