          Evm          Svm            E11          E22          E33          E23          E13          E12         SDEV11       SDEV22       SDEV33       SDEV23       SDEV13       SDEV12      TEMP
  0.00000E+00  0.57090E+02    0.00000E+00  0.00000E+00  0.00000E+00  0.00000E+00  0.00000E+00  0.00000E+00    0.20172E+02  0.14762E+02 -0.34934E+02 -0.75469E+00  0.47936E+01  0.11843E+02      982.00
  0.22947E-01  0.57141E+02    0.12500E-01  0.12500E-01 -0.25000E-01  0.00000E+00  0.00000E+00  0.00000E+00    0.19631E+02  0.15303E+02 -0.34934E+02 -0.10538E+01  0.43999E+01  0.12161E+02      982.00
  0.45873E-01  0.57255E+02    0.25000E-01  0.25000E-01 -0.50000E-01  0.00000E+00  0.00000E+00  0.00000E+00    0.19199E+02  0.15748E+02 -0.34948E+02 -0.12895E+01  0.40857E+01  0.12465E+02      982.00
  0.68763E-01  0.57449E+02    0.37500E-01  0.37500E-01 -0.75000E-01  0.00000E+00  0.00000E+00  0.00000E+00    0.18870E+02  0.16118E+02 -0.34988E+02 -0.14842E+01  0.38154E+01  0.12781E+02      982.00
  0.91601E-01  0.57718E+02    0.50000E-01  0.50000E-01 -0.10000E+00  0.00000E+00  0.00000E+00  0.00000E+00    0.18638E+02  0.16420E+02 -0.35058E+02 -0.16414E+01  0.35812E+01  0.13111E+02      982.00
  0.11438E+00  0.58050E+02    0.62500E-01  0.62500E-01 -0.12500E+00  0.00000E+00  0.00000E+00  0.00000E+00    0.18485E+02  0.16670E+02 -0.35155E+02 -0.17685E+01  0.33723E+01  0.13454E+02      982.00
  0.13709E+00  0.58422E+02    0.75000E-01  0.75000E-01 -0.15000E+00  0.00000E+00  0.00000E+00  0.00000E+00    0.18398E+02  0.16874E+02 -0.35272E+02 -0.18654E+01  0.31895E+01  0.13798E+02      982.00
  0.15973E+00  0.58821E+02    0.87500E-01  0.87500E-01 -0.17500E+00  0.00000E+00  0.00000E+00  0.00000E+00    0.18357E+02  0.17046E+02 -0.35404E+02 -0.19391E+01  0.30268E+01  0.14139E+02      982.00
  0.18230E+00  0.59234E+02    0.10000E+00  0.10000E+00 -0.20000E+00  0.00000E+00  0.00000E+00  0.00000E+00    0.18348E+02  0.17197E+02 -0.35544E+02 -0.19943E+01  0.28823E+01  0.14470E+02      982.00
  0.20480E+00  0.59656E+02    0.11250E+00  0.11250E+00 -0.22500E+00  0.00000E+00  0.00000E+00  0.00000E+00    0.18361E+02  0.17333E+02 -0.35694E+02 -0.20337E+01  0.27560E+01  0.14789E+02      982.00
  0.22724E+00  0.60064E+02    0.12500E+00  0.12500E+00 -0.25000E+00  0.00000E+00  0.00000E+00  0.00000E+00    0.18384E+02  0.17459E+02 -0.35843E+02 -0.20640E+01  0.26422E+01  0.15085E+02      982.00
  0.24962E+00  0.60466E+02    0.13750E+00  0.13750E+00 -0.27500E+00  0.00000E+00  0.00000E+00  0.00000E+00    0.18418E+02  0.17575E+02 -0.35994E+02 -0.20812E+01  0.25444E+01  0.15365E+02      982.00
  0.27194E+00  0.60845E+02    0.15000E+00  0.15000E+00 -0.30000E+00  0.00000E+00  0.00000E+00  0.00000E+00    0.18448E+02  0.17691E+02 -0.36139E+02 -0.20973E+01  0.24548E+01  0.15619E+02      982.00
  0.29421E+00  0.61213E+02    0.16250E+00  0.16250E+00 -0.32500E+00  0.00000E+00  0.00000E+00  0.00000E+00    0.18482E+02  0.17800E+02 -0.36282E+02 -0.21046E+01  0.23793E+01  0.15859E+02      982.00
  0.31644E+00  0.61551E+02    0.17500E+00  0.17500E+00 -0.35000E+00  0.00000E+00  0.00000E+00  0.00000E+00    0.18508E+02  0.17910E+02 -0.36417E+02 -0.21129E+01  0.23079E+01  0.16072E+02      982.00
  0.33863E+00  0.61878E+02    0.18750E+00  0.18750E+00 -0.37500E+00  0.00000E+00  0.00000E+00  0.00000E+00    0.18536E+02  0.18014E+02 -0.36549E+02 -0.21150E+01  0.22501E+01  0.16272E+02      982.00
  0.36078E+00  0.62185E+02    0.20000E+00  0.20000E+00 -0.40000E+00  0.00000E+00  0.00000E+00  0.00000E+00    0.18563E+02  0.18114E+02 -0.36677E+02 -0.21144E+01  0.22031E+01  0.16453E+02      982.00
  0.38290E+00  0.62444E+02    0.21250E+00  0.21250E+00 -0.42500E+00  0.00000E+00  0.00000E+00  0.00000E+00    0.18574E+02  0.18211E+02 -0.36785E+02 -0.21161E+01  0.21523E+01  0.16605E+02      982.00
  0.40499E+00  0.62708E+02    0.22500E+00  0.22500E+00 -0.45000E+00  0.00000E+00  0.00000E+00  0.00000E+00    0.18593E+02  0.18304E+02 -0.36897E+02 -0.21147E+01  0.21135E+01  0.16756E+02      982.00
  0.42705E+00  0.62952E+02    0.23750E+00  0.23750E+00 -0.47500E+00  0.00000E+00  0.00000E+00  0.00000E+00    0.18609E+02  0.18393E+02 -0.37002E+02 -0.21125E+01  0.20795E+01  0.16892E+02      982.00
  0.44909E+00  0.63173E+02    0.25000E+00  0.25000E+00 -0.50000E+00  0.00000E+00  0.00000E+00  0.00000E+00    0.18622E+02  0.18477E+02 -0.37098E+02 -0.21094E+01  0.20489E+01  0.17012E+02      982.00
  0.47112E+00  0.63381E+02    0.26250E+00  0.26250E+00 -0.52500E+00  0.00000E+00  0.00000E+00  0.00000E+00    0.18634E+02  0.18556E+02 -0.37190E+02 -0.21063E+01  0.20224E+01  0.17124E+02      982.00
  0.49312E+00  0.63552E+02    0.27500E+00  0.27500E+00 -0.55000E+00  0.00000E+00  0.00000E+00  0.00000E+00    0.18634E+02  0.18631E+02 -0.37265E+02 -0.21031E+01  0.19923E+01  0.17216E+02      982.00
  0.51511E+00  0.63731E+02    0.28750E+00  0.28750E+00 -0.57500E+00  0.00000E+00  0.00000E+00  0.00000E+00    0.18644E+02  0.18702E+02 -0.37346E+02 -0.20996E+01  0.19717E+01  0.17308E+02      982.00
  0.53708E+00  0.63895E+02    0.30000E+00  0.30000E+00 -0.60000E+00  0.00000E+00  0.00000E+00  0.00000E+00    0.18654E+02  0.18767E+02 -0.37421E+02 -0.20957E+01  0.19536E+01  0.17390E+02      982.00
  0.55905E+00  0.64040E+02    0.31250E+00  0.31250E+00 -0.62500E+00  0.00000E+00  0.00000E+00  0.00000E+00    0.18654E+02  0.18832E+02 -0.37487E+02 -0.20907E+01  0.19303E+01  0.17465E+02      982.00
  0.58100E+00  0.64181E+02    0.32500E+00  0.32500E+00 -0.65000E+00  0.00000E+00  0.00000E+00  0.00000E+00    0.18664E+02  0.18889E+02 -0.37552E+02 -0.20871E+01  0.19158E+01  0.17533E+02      982.00
  0.60294E+00  0.64315E+02    0.33750E+00  0.33750E+00 -0.67500E+00  0.00000E+00  0.00000E+00  0.00000E+00    0.18683E+02  0.18936E+02 -0.37619E+02 -0.20835E+01  0.19112E+01  0.17590E+02      982.00
  0.62487E+00  0.64399E+02    0.35000E+00  0.35000E+00 -0.70000E+00  0.00000E+00  0.00000E+00  0.00000E+00    0.18679E+02  0.18978E+02 -0.37657E+02 -0.20779E+01  0.18940E+01  0.17634E+02      982.00
  0.64680E+00  0.64515E+02    0.36250E+00  0.36250E+00 -0.72500E+00  0.00000E+00  0.00000E+00  0.00000E+00    0.18689E+02  0.19023E+02 -0.37712E+02 -0.20747E+01  0.18834E+01  0.17687E+02      982.00
  0.66872E+00  0.64619E+02    0.37500E+00  0.37500E+00 -0.75000E+00  0.00000E+00  0.00000E+00  0.00000E+00    0.18700E+02  0.19063E+02 -0.37763E+02 -0.20714E+01  0.18737E+01  0.17734E+02      982.00
  0.69064E+00  0.64732E+02    0.38750E+00  0.38750E+00 -0.77500E+00  0.00000E+00  0.00000E+00  0.00000E+00    0.18701E+02  0.19113E+02 -0.37814E+02 -0.20650E+01  0.18523E+01  0.17794E+02      982.00
  0.71254E+00  0.64825E+02    0.40000E+00  0.40000E+00 -0.80000E+00  0.00000E+00  0.00000E+00  0.00000E+00    0.18713E+02  0.19147E+02 -0.37860E+02 -0.20621E+01  0.18423E+01  0.17833E+02      982.00
  0.73444E+00  0.64904E+02    0.41250E+00  0.41250E+00 -0.82500E+00  0.00000E+00  0.00000E+00  0.00000E+00    0.18725E+02  0.19175E+02 -0.37900E+02 -0.20598E+01  0.18348E+01  0.17866E+02      982.00
  0.75634E+00  0.64979E+02    0.42500E+00  0.42500E+00 -0.85000E+00  0.00000E+00  0.00000E+00  0.00000E+00    0.18738E+02  0.19199E+02 -0.37938E+02 -0.20576E+01  0.18285E+01  0.17897E+02      982.00
  0.77824E+00  0.65048E+02    0.43750E+00  0.43750E+00 -0.87500E+00  0.00000E+00  0.00000E+00  0.00000E+00    0.18752E+02  0.19221E+02 -0.37973E+02 -0.20557E+01  0.18226E+01  0.17926E+02      982.00
  0.80013E+00  0.65113E+02    0.45000E+00  0.45000E+00 -0.90000E+00  0.00000E+00  0.00000E+00  0.00000E+00    0.18766E+02  0.19241E+02 -0.38007E+02 -0.20541E+01  0.18171E+01  0.17952E+02      982.00
  0.82202E+00  0.65207E+02    0.46250E+00  0.46250E+00 -0.92500E+00  0.00000E+00  0.00000E+00  0.00000E+00    0.18786E+02  0.19267E+02 -0.38053E+02 -0.20503E+01  0.18039E+01  0.17994E+02      982.00
  0.84390E+00  0.65231E+02    0.47500E+00  0.47500E+00 -0.95000E+00  0.00000E+00  0.00000E+00  0.00000E+00    0.18794E+02  0.19273E+02 -0.38068E+02 -0.20511E+01  0.18045E+01  0.17999E+02      982.00
  0.86578E+00  0.65312E+02    0.48750E+00  0.48750E+00 -0.97500E+00  0.00000E+00  0.00000E+00  0.00000E+00    0.18816E+02  0.19292E+02 -0.38108E+02 -0.20491E+01  0.17943E+01  0.18035E+02      982.00
  0.88766E+00  0.65299E+02    0.50000E+00  0.50000E+00 -0.10000E+01  0.00000E+00  0.00000E+00  0.00000E+00    0.18811E+02  0.19292E+02 -0.38102E+02 -0.20544E+01  0.17985E+01  0.18027E+02      982.00
