          Evm          Svm            E11          E22          E33          E23          E13          E12         SDEV11       SDEV22       SDEV33       SDEV23       SDEV13       SDEV12      TEMP
  0.00000E+00  0.54921E+02    0.00000E+00  0.00000E+00  0.00000E+00  0.00000E+00  0.00000E+00  0.00000E+00    0.22656E+02  0.12194E+02 -0.34850E+02 -0.54107E+01 -0.27722E+01  0.54965E+01      982.00
  0.23796E-01  0.54753E+02    0.12500E-01  0.12500E-01 -0.25000E-01  0.00000E+00  0.00000E+00  0.00000E+00    0.22495E+02  0.12243E+02 -0.34738E+02 -0.54821E+01 -0.28229E+01  0.54745E+01      982.00
  0.47587E-01  0.54621E+02    0.25000E-01  0.25000E-01 -0.50000E-01  0.00000E+00  0.00000E+00  0.00000E+00    0.22343E+02  0.12312E+02 -0.34655E+02 -0.55582E+01 -0.28636E+01  0.54320E+01      982.00
  0.71380E-01  0.54532E+02    0.37500E-01  0.37500E-01 -0.75000E-01  0.00000E+00  0.00000E+00  0.00000E+00    0.22201E+02  0.12404E+02 -0.34605E+02 -0.56506E+01 -0.28760E+01  0.53761E+01      982.00
  0.95177E-01  0.54486E+02    0.50000E-01  0.50000E-01 -0.10000E+00  0.00000E+00  0.00000E+00  0.00000E+00    0.22073E+02  0.12515E+02 -0.34588E+02 -0.57507E+01 -0.28778E+01  0.53049E+01      982.00
  0.11898E+00  0.54472E+02    0.62500E-01  0.62500E-01 -0.12500E+00  0.00000E+00  0.00000E+00  0.00000E+00    0.21952E+02  0.12645E+02 -0.34597E+02 -0.58585E+01 -0.28606E+01  0.52158E+01      982.00
  0.14280E+00  0.54477E+02    0.75000E-01  0.75000E-01 -0.15000E+00  0.00000E+00  0.00000E+00  0.00000E+00    0.21831E+02  0.12793E+02 -0.34625E+02 -0.59687E+01 -0.28262E+01  0.51066E+01      982.00
  0.16663E+00  0.54496E+02    0.87500E-01  0.87500E-01 -0.17500E+00  0.00000E+00  0.00000E+00  0.00000E+00    0.21706E+02  0.12962E+02 -0.34668E+02 -0.60768E+01 -0.27766E+01  0.49755E+01      982.00
  0.19049E+00  0.54519E+02    0.10000E+00  0.10000E+00 -0.20000E+00  0.00000E+00  0.00000E+00  0.00000E+00    0.21572E+02  0.13151E+02 -0.34723E+02 -0.61796E+01 -0.27131E+01  0.48213E+01      982.00
  0.21437E+00  0.54537E+02    0.11250E+00  0.11250E+00 -0.22500E+00  0.00000E+00  0.00000E+00  0.00000E+00    0.21419E+02  0.13364E+02 -0.34783E+02 -0.62751E+01 -0.26311E+01  0.46398E+01      982.00
  0.23829E+00  0.54548E+02    0.12500E+00  0.12500E+00 -0.25000E+00  0.00000E+00  0.00000E+00  0.00000E+00    0.21249E+02  0.13595E+02 -0.34844E+02 -0.63606E+01 -0.25397E+01  0.44351E+01      982.00
  0.26224E+00  0.54543E+02    0.13750E+00  0.13750E+00 -0.27500E+00  0.00000E+00  0.00000E+00  0.00000E+00    0.21055E+02  0.13848E+02 -0.34903E+02 -0.64349E+01 -0.24321E+01  0.42023E+01      982.00
  0.28624E+00  0.54516E+02    0.15000E+00  0.15000E+00 -0.30000E+00  0.00000E+00  0.00000E+00  0.00000E+00    0.20830E+02  0.14126E+02 -0.34956E+02 -0.64957E+01 -0.22994E+01  0.39364E+01      982.00
  0.31029E+00  0.54471E+02    0.16250E+00  0.16250E+00 -0.32500E+00  0.00000E+00  0.00000E+00  0.00000E+00    0.20576E+02  0.14427E+02 -0.35003E+02 -0.65413E+01 -0.21474E+01  0.36400E+01      982.00
  0.33438E+00  0.54405E+02    0.17500E+00  0.17500E+00 -0.35000E+00  0.00000E+00  0.00000E+00  0.00000E+00    0.20289E+02  0.14754E+02 -0.35043E+02 -0.65686E+01 -0.19631E+01  0.33069E+01      982.00
  0.35854E+00  0.54322E+02    0.18750E+00  0.18750E+00 -0.37500E+00  0.00000E+00  0.00000E+00  0.00000E+00    0.19969E+02  0.15108E+02 -0.35077E+02 -0.65750E+01 -0.17468E+01  0.29375E+01      982.00
  0.38275E+00  0.54225E+02    0.20000E+00  0.20000E+00 -0.40000E+00  0.00000E+00  0.00000E+00  0.00000E+00    0.19611E+02  0.15496E+02 -0.35107E+02 -0.65555E+01 -0.14801E+01  0.25231E+01      982.00
  0.40703E+00  0.54123E+02    0.21250E+00  0.21250E+00 -0.42500E+00  0.00000E+00  0.00000E+00  0.00000E+00    0.19216E+02  0.15918E+02 -0.35134E+02 -0.65055E+01 -0.11594E+01  0.20640E+01      982.00
  0.43138E+00  0.54026E+02    0.22500E+00  0.22500E+00 -0.45000E+00  0.00000E+00  0.00000E+00  0.00000E+00    0.18787E+02  0.16375E+02 -0.35161E+02 -0.64195E+01 -0.77785E+00  0.15592E+01      982.00
  0.45578E+00  0.53949E+02    0.23750E+00  0.23750E+00 -0.47500E+00  0.00000E+00  0.00000E+00  0.00000E+00    0.18327E+02  0.16866E+02 -0.35193E+02 -0.62922E+01 -0.33181E+00  0.10108E+01      982.00
  0.48024E+00  0.53910E+02    0.25000E+00  0.25000E+00 -0.50000E+00  0.00000E+00  0.00000E+00  0.00000E+00    0.17845E+02  0.17388E+02 -0.35234E+02 -0.61194E+01  0.17626E+00  0.42493E+00      982.00
  0.50475E+00  0.53925E+02    0.26250E+00  0.26250E+00 -0.52500E+00  0.00000E+00  0.00000E+00  0.00000E+00    0.17353E+02  0.17933E+02 -0.35286E+02 -0.58995E+01  0.73477E+00 -0.18661E+00      982.00
  0.52929E+00  0.54006E+02    0.27500E+00  0.27500E+00 -0.55000E+00  0.00000E+00  0.00000E+00  0.00000E+00    0.16867E+02  0.18487E+02 -0.35353E+02 -0.56336E+01  0.13255E+01 -0.80807E+00      982.00
  0.55384E+00  0.54158E+02    0.28750E+00  0.28750E+00 -0.57500E+00  0.00000E+00  0.00000E+00  0.00000E+00    0.16406E+02  0.19032E+02 -0.35438E+02 -0.53291E+01  0.19169E+01 -0.14168E+01      982.00
  0.57838E+00  0.54376E+02    0.30000E+00  0.30000E+00 -0.60000E+00  0.00000E+00  0.00000E+00  0.00000E+00    0.15989E+02  0.19552E+02 -0.35540E+02 -0.49965E+01  0.24782E+01 -0.19915E+01      982.00
  0.60289E+00  0.54650E+02    0.31250E+00  0.31250E+00 -0.62500E+00  0.00000E+00  0.00000E+00  0.00000E+00    0.15628E+02  0.20034E+02 -0.35662E+02 -0.46464E+01  0.29895E+01 -0.25181E+01      982.00
  0.62736E+00  0.54971E+02    0.32500E+00  0.32500E+00 -0.65000E+00  0.00000E+00  0.00000E+00  0.00000E+00    0.15325E+02  0.20478E+02 -0.35803E+02 -0.42856E+01  0.34487E+01 -0.29925E+01      982.00
  0.65178E+00  0.55329E+02    0.33750E+00  0.33750E+00 -0.67500E+00  0.00000E+00  0.00000E+00  0.00000E+00    0.15079E+02  0.20886E+02 -0.35964E+02 -0.39201E+01  0.38602E+01 -0.34153E+01      982.00
  0.67616E+00  0.55720E+02    0.35000E+00  0.35000E+00 -0.70000E+00  0.00000E+00  0.00000E+00  0.00000E+00    0.14885E+02  0.21260E+02 -0.36145E+02 -0.35585E+01  0.42279E+01 -0.37892E+01      982.00
  0.70048E+00  0.56138E+02    0.36250E+00  0.36250E+00 -0.72500E+00  0.00000E+00  0.00000E+00  0.00000E+00    0.14736E+02  0.21607E+02 -0.36343E+02 -0.32028E+01  0.45636E+01 -0.41202E+01      982.00
  0.72476E+00  0.56580E+02    0.37500E+00  0.37500E+00 -0.75000E+00  0.00000E+00  0.00000E+00  0.00000E+00    0.14627E+02  0.21931E+02 -0.36558E+02 -0.28566E+01  0.48735E+01 -0.44131E+01      982.00
  0.74899E+00  0.57040E+02    0.38750E+00  0.38750E+00 -0.77500E+00  0.00000E+00  0.00000E+00  0.00000E+00    0.14550E+02  0.22236E+02 -0.36786E+02 -0.25223E+01  0.51616E+01 -0.46720E+01      982.00
  0.77318E+00  0.57513E+02    0.40000E+00  0.40000E+00 -0.80000E+00  0.00000E+00  0.00000E+00  0.00000E+00    0.14503E+02  0.22522E+02 -0.37025E+02 -0.22026E+01  0.54295E+01 -0.48999E+01      982.00
  0.79732E+00  0.57994E+02    0.41250E+00  0.41250E+00 -0.82500E+00  0.00000E+00  0.00000E+00  0.00000E+00    0.14481E+02  0.22792E+02 -0.37273E+02 -0.18958E+01  0.56798E+01 -0.51003E+01      982.00
  0.82142E+00  0.58477E+02    0.42500E+00  0.42500E+00 -0.85000E+00  0.00000E+00  0.00000E+00  0.00000E+00    0.14479E+02  0.23047E+02 -0.37526E+02 -0.16025E+01  0.59118E+01 -0.52753E+01      982.00
  0.84548E+00  0.58956E+02    0.43750E+00  0.43750E+00 -0.87500E+00  0.00000E+00  0.00000E+00  0.00000E+00    0.14496E+02  0.23286E+02 -0.37782E+02 -0.13242E+01  0.61234E+01 -0.54270E+01      982.00
  0.86951E+00  0.59428E+02    0.45000E+00  0.45000E+00 -0.90000E+00  0.00000E+00  0.00000E+00  0.00000E+00    0.14528E+02  0.23510E+02 -0.38038E+02 -0.10621E+01  0.63124E+01 -0.55575E+01      982.00
  0.89352E+00  0.59888E+02    0.46250E+00  0.46250E+00 -0.92500E+00  0.00000E+00  0.00000E+00  0.00000E+00    0.14573E+02  0.23720E+02 -0.38293E+02 -0.81092E+00  0.64834E+01 -0.56686E+01      982.00
  0.91750E+00  0.60334E+02    0.47500E+00  0.47500E+00 -0.95000E+00  0.00000E+00  0.00000E+00  0.00000E+00    0.14629E+02  0.23916E+02 -0.38545E+02 -0.57275E+00  0.66340E+01 -0.57625E+01      982.00
  0.94145E+00  0.60763E+02    0.48750E+00  0.48750E+00 -0.97500E+00  0.00000E+00  0.00000E+00  0.00000E+00    0.14693E+02  0.24099E+02 -0.38792E+02 -0.34813E+00  0.67639E+01 -0.58408E+01      982.00
  0.96539E+00  0.61174E+02    0.50000E+00  0.50000E+00 -0.10000E+01  0.00000E+00  0.00000E+00  0.00000E+00    0.14765E+02  0.24269E+02 -0.39033E+02 -0.13682E+00  0.68736E+01 -0.59056E+01      982.00
