          Evm          Svm            E11          E22          E33          E23          E13          E12         SDEV11       SDEV22       SDEV33       SDEV23       SDEV13       SDEV12      TEMP
  0.00000E+00  0.63060E+02    0.00000E+00  0.00000E+00  0.00000E+00  0.00000E+00  0.00000E+00  0.00000E+00    0.18388E+02  0.21023E+02 -0.39410E+02 -0.29123E+01  0.28995E+01  0.11917E+02      982.00
  0.23436E-01  0.63026E+02    0.12500E-01  0.12500E-01 -0.25000E-01  0.00000E+00  0.00000E+00  0.00000E+00    0.18222E+02  0.21240E+02 -0.39462E+02 -0.30948E+01  0.28577E+01  0.11667E+02      982.00
  0.46916E-01  0.63039E+02    0.25000E-01  0.25000E-01 -0.50000E-01  0.00000E+00  0.00000E+00  0.00000E+00    0.18090E+02  0.21440E+02 -0.39530E+02 -0.32361E+01  0.27514E+01  0.11480E+02      982.00
  0.70431E-01  0.63095E+02    0.37500E-01  0.37500E-01 -0.75000E-01  0.00000E+00  0.00000E+00  0.00000E+00    0.17963E+02  0.21650E+02 -0.39613E+02 -0.33498E+01  0.26270E+01  0.11340E+02      982.00
  0.93975E-01  0.63189E+02    0.50000E-01  0.50000E-01 -0.10000E+00  0.00000E+00  0.00000E+00  0.00000E+00    0.17842E+02  0.21866E+02 -0.39708E+02 -0.34339E+01  0.25049E+01  0.11239E+02      982.00
  0.11754E+00  0.63323E+02    0.62500E-01  0.62500E-01 -0.12500E+00  0.00000E+00  0.00000E+00  0.00000E+00    0.17737E+02  0.22080E+02 -0.39816E+02 -0.34910E+01  0.23953E+01  0.11179E+02      982.00
  0.14112E+00  0.63490E+02    0.75000E-01  0.75000E-01 -0.15000E+00  0.00000E+00  0.00000E+00  0.00000E+00    0.17641E+02  0.22295E+02 -0.39937E+02 -0.35255E+01  0.23026E+01  0.11149E+02      982.00
  0.16471E+00  0.63688E+02    0.87500E-01  0.87500E-01 -0.17500E+00  0.00000E+00  0.00000E+00  0.00000E+00    0.17574E+02  0.22495E+02 -0.40069E+02 -0.35432E+01  0.22273E+01  0.11151E+02      982.00
  0.18830E+00  0.63913E+02    0.10000E+00  0.10000E+00 -0.20000E+00  0.00000E+00  0.00000E+00  0.00000E+00    0.17528E+02  0.22685E+02 -0.40212E+02 -0.35492E+01  0.21687E+01  0.11176E+02      982.00
  0.21189E+00  0.64152E+02    0.11250E+00  0.11250E+00 -0.22500E+00  0.00000E+00  0.00000E+00  0.00000E+00    0.17492E+02  0.22868E+02 -0.40360E+02 -0.35440E+01  0.21244E+01  0.11218E+02      982.00
  0.23549E+00  0.64416E+02    0.12500E+00  0.12500E+00 -0.25000E+00  0.00000E+00  0.00000E+00  0.00000E+00    0.17485E+02  0.23035E+02 -0.40519E+02 -0.35369E+01  0.20942E+01  0.11277E+02      982.00
  0.25907E+00  0.64683E+02    0.13750E+00  0.13750E+00 -0.27500E+00  0.00000E+00  0.00000E+00  0.00000E+00    0.17484E+02  0.23193E+02 -0.40678E+02 -0.35228E+01  0.20739E+01  0.11347E+02      982.00
  0.28266E+00  0.64966E+02    0.15000E+00  0.15000E+00 -0.30000E+00  0.00000E+00  0.00000E+00  0.00000E+00    0.17510E+02  0.23336E+02 -0.40846E+02 -0.35110E+01  0.20644E+01  0.11422E+02      982.00
  0.30624E+00  0.65250E+02    0.16250E+00  0.16250E+00 -0.32500E+00  0.00000E+00  0.00000E+00  0.00000E+00    0.17540E+02  0.23473E+02 -0.41013E+02 -0.34943E+01  0.20612E+01  0.11506E+02      982.00
  0.32981E+00  0.65533E+02    0.17500E+00  0.17500E+00 -0.35000E+00  0.00000E+00  0.00000E+00  0.00000E+00    0.17590E+02  0.23593E+02 -0.41182E+02 -0.34806E+01  0.20652E+01  0.11583E+02      982.00
  0.35337E+00  0.65827E+02    0.18750E+00  0.18750E+00 -0.37500E+00  0.00000E+00  0.00000E+00  0.00000E+00    0.17644E+02  0.23712E+02 -0.41356E+02 -0.34624E+01  0.20730E+01  0.11670E+02      982.00
  0.37693E+00  0.66094E+02    0.20000E+00  0.20000E+00 -0.40000E+00  0.00000E+00  0.00000E+00  0.00000E+00    0.17709E+02  0.23808E+02 -0.41518E+02 -0.34466E+01  0.20842E+01  0.11740E+02      982.00
  0.40049E+00  0.66350E+02    0.21250E+00  0.21250E+00 -0.42500E+00  0.00000E+00  0.00000E+00  0.00000E+00    0.17780E+02  0.23894E+02 -0.41674E+02 -0.34302E+01  0.20971E+01  0.11806E+02      982.00
  0.42404E+00  0.66594E+02    0.22500E+00  0.22500E+00 -0.45000E+00  0.00000E+00  0.00000E+00  0.00000E+00    0.17854E+02  0.23971E+02 -0.41825E+02 -0.34124E+01  0.21108E+01  0.11867E+02      982.00
  0.44759E+00  0.66850E+02    0.23750E+00  0.23750E+00 -0.47500E+00  0.00000E+00  0.00000E+00  0.00000E+00    0.17932E+02  0.24049E+02 -0.41982E+02 -0.33863E+01  0.21252E+01  0.11934E+02      982.00
  0.47114E+00  0.67039E+02    0.25000E+00  0.25000E+00 -0.50000E+00  0.00000E+00  0.00000E+00  0.00000E+00    0.18003E+02  0.24097E+02 -0.42100E+02 -0.33693E+01  0.21402E+01  0.11981E+02      982.00
  0.49469E+00  0.67243E+02    0.26250E+00  0.26250E+00 -0.52500E+00  0.00000E+00  0.00000E+00  0.00000E+00    0.18081E+02  0.24150E+02 -0.42230E+02 -0.33484E+01  0.21536E+01  0.12026E+02      982.00
  0.51824E+00  0.67433E+02    0.27500E+00  0.27500E+00 -0.55000E+00  0.00000E+00  0.00000E+00  0.00000E+00    0.18157E+02  0.24196E+02 -0.42353E+02 -0.33248E+01  0.21651E+01  0.12065E+02      982.00
  0.54180E+00  0.67611E+02    0.28750E+00  0.28750E+00 -0.57500E+00  0.00000E+00  0.00000E+00  0.00000E+00    0.18232E+02  0.24237E+02 -0.42469E+02 -0.32999E+01  0.21754E+01  0.12100E+02      982.00
  0.56535E+00  0.67776E+02    0.30000E+00  0.30000E+00 -0.60000E+00  0.00000E+00  0.00000E+00  0.00000E+00    0.18305E+02  0.24272E+02 -0.42578E+02 -0.32740E+01  0.21845E+01  0.12131E+02      982.00
  0.58891E+00  0.67930E+02    0.31250E+00  0.31250E+00 -0.62500E+00  0.00000E+00  0.00000E+00  0.00000E+00    0.18376E+02  0.24303E+02 -0.42680E+02 -0.32472E+01  0.21924E+01  0.12159E+02      982.00
  0.61247E+00  0.68072E+02    0.32500E+00  0.32500E+00 -0.65000E+00  0.00000E+00  0.00000E+00  0.00000E+00    0.18445E+02  0.24331E+02 -0.42776E+02 -0.32198E+01  0.21992E+01  0.12182E+02      982.00
  0.63603E+00  0.68205E+02    0.33750E+00  0.33750E+00 -0.67500E+00  0.00000E+00  0.00000E+00  0.00000E+00    0.18512E+02  0.24355E+02 -0.42866E+02 -0.31920E+01  0.22049E+01  0.12203E+02      982.00
  0.65960E+00  0.68328E+02    0.35000E+00  0.35000E+00 -0.70000E+00  0.00000E+00  0.00000E+00  0.00000E+00    0.18575E+02  0.24376E+02 -0.42951E+02 -0.31639E+01  0.22095E+01  0.12220E+02      982.00
  0.68318E+00  0.68441E+02    0.36250E+00  0.36250E+00 -0.72500E+00  0.00000E+00  0.00000E+00  0.00000E+00    0.18636E+02  0.24394E+02 -0.43030E+02 -0.31356E+01  0.22132E+01  0.12235E+02      982.00
  0.70675E+00  0.68547E+02    0.37500E+00  0.37500E+00 -0.75000E+00  0.00000E+00  0.00000E+00  0.00000E+00    0.18694E+02  0.24410E+02 -0.43104E+02 -0.31073E+01  0.22161E+01  0.12248E+02      982.00
  0.73033E+00  0.68644E+02    0.38750E+00  0.38750E+00 -0.77500E+00  0.00000E+00  0.00000E+00  0.00000E+00    0.18750E+02  0.24424E+02 -0.43174E+02 -0.30792E+01  0.22182E+01  0.12258E+02      982.00
  0.75392E+00  0.68735E+02    0.40000E+00  0.40000E+00 -0.80000E+00  0.00000E+00  0.00000E+00  0.00000E+00    0.18802E+02  0.24437E+02 -0.43239E+02 -0.30513E+01  0.22197E+01  0.12267E+02      982.00
  0.77751E+00  0.68819E+02    0.41250E+00  0.41250E+00 -0.82500E+00  0.00000E+00  0.00000E+00  0.00000E+00    0.18852E+02  0.24448E+02 -0.43300E+02 -0.30237E+01  0.22206E+01  0.12274E+02      982.00
  0.80110E+00  0.68897E+02    0.42500E+00  0.42500E+00 -0.85000E+00  0.00000E+00  0.00000E+00  0.00000E+00    0.18899E+02  0.24457E+02 -0.43357E+02 -0.29966E+01  0.22211E+01  0.12279E+02      982.00
  0.82470E+00  0.68969E+02    0.43750E+00  0.43750E+00 -0.87500E+00  0.00000E+00  0.00000E+00  0.00000E+00    0.18944E+02  0.24466E+02 -0.43410E+02 -0.29700E+01  0.22212E+01  0.12284E+02      982.00
  0.84830E+00  0.69037E+02    0.45000E+00  0.45000E+00 -0.90000E+00  0.00000E+00  0.00000E+00  0.00000E+00    0.18986E+02  0.24475E+02 -0.43460E+02 -0.29439E+01  0.22210E+01  0.12287E+02      982.00
  0.87191E+00  0.69099E+02    0.46250E+00  0.46250E+00 -0.92500E+00  0.00000E+00  0.00000E+00  0.00000E+00    0.19025E+02  0.24482E+02 -0.43507E+02 -0.29185E+01  0.22206E+01  0.12289E+02      982.00
  0.89552E+00  0.69158E+02    0.47500E+00  0.47500E+00 -0.95000E+00  0.00000E+00  0.00000E+00  0.00000E+00    0.19062E+02  0.24489E+02 -0.43551E+02 -0.28937E+01  0.22199E+01  0.12291E+02      982.00
  0.91914E+00  0.69207E+02    0.48750E+00  0.48750E+00 -0.97500E+00  0.00000E+00  0.00000E+00  0.00000E+00    0.19094E+02  0.24495E+02 -0.43589E+02 -0.28839E+01  0.22205E+01  0.12288E+02      982.00
  0.94276E+00  0.69251E+02    0.50000E+00  0.50000E+00 -0.10000E+01  0.00000E+00  0.00000E+00  0.00000E+00    0.19122E+02  0.24498E+02 -0.43620E+02 -0.28543E+01  0.22211E+01  0.12297E+02      982.00
