          Evm          Svm            E11          E22          E33          E23          E13          E12         SDEV11       SDEV22       SDEV33       SDEV23       SDEV13       SDEV12      TEMP
  0.00000E+00  0.57840E+02    0.00000E+00  0.00000E+00  0.00000E+00  0.00000E+00  0.00000E+00  0.00000E+00    0.17706E+02  0.17762E+02 -0.35468E+02 -0.24150E+01  0.21435E+01  0.12698E+02      982.00
  0.22995E-01  0.57908E+02    0.12500E-01  0.12500E-01 -0.25000E-01  0.00000E+00  0.00000E+00  0.00000E+00    0.17754E+02  0.17688E+02 -0.35442E+02 -0.24265E+01  0.22108E+01  0.12841E+02      982.00
  0.45947E-01  0.58053E+02    0.25000E-01  0.25000E-01 -0.50000E-01  0.00000E+00  0.00000E+00  0.00000E+00    0.17805E+02  0.17647E+02 -0.35451E+02 -0.24458E+01  0.22596E+01  0.13027E+02      982.00
  0.68847E-01  0.58264E+02    0.37500E-01  0.37500E-01 -0.75000E-01  0.00000E+00  0.00000E+00  0.00000E+00    0.17861E+02  0.17629E+02 -0.35490E+02 -0.24595E+01  0.22957E+01  0.13250E+02      982.00
  0.91689E-01  0.58544E+02    0.50000E-01  0.50000E-01 -0.10000E+00  0.00000E+00  0.00000E+00  0.00000E+00    0.17925E+02  0.17632E+02 -0.35557E+02 -0.24640E+01  0.23187E+01  0.13521E+02      982.00
  0.11446E+00  0.58856E+02    0.62500E-01  0.62500E-01 -0.12500E+00  0.00000E+00  0.00000E+00  0.00000E+00    0.17981E+02  0.17662E+02 -0.35642E+02 -0.24682E+01  0.23232E+01  0.13798E+02      982.00
  0.13717E+00  0.59202E+02    0.75000E-01  0.75000E-01 -0.15000E+00  0.00000E+00  0.00000E+00  0.00000E+00    0.18036E+02  0.17709E+02 -0.35746E+02 -0.24660E+01  0.23145E+01  0.14090E+02      982.00
  0.15982E+00  0.59578E+02    0.87500E-01  0.87500E-01 -0.17500E+00  0.00000E+00  0.00000E+00  0.00000E+00    0.18093E+02  0.17769E+02 -0.35862E+02 -0.24497E+01  0.22879E+01  0.14400E+02      982.00
  0.18239E+00  0.59953E+02    0.10000E+00  0.10000E+00 -0.20000E+00  0.00000E+00  0.00000E+00  0.00000E+00    0.18147E+02  0.17838E+02 -0.35985E+02 -0.24325E+01  0.22569E+01  0.14693E+02      982.00
  0.20490E+00  0.60297E+02    0.11250E+00  0.11250E+00 -0.22500E+00  0.00000E+00  0.00000E+00  0.00000E+00    0.18202E+02  0.17905E+02 -0.36107E+02 -0.24245E+01  0.22397E+01  0.14941E+02      982.00
  0.22735E+00  0.60670E+02    0.12500E+00  0.12500E+00 -0.25000E+00  0.00000E+00  0.00000E+00  0.00000E+00    0.18257E+02  0.17979E+02 -0.36236E+02 -0.23959E+01  0.21991E+01  0.15217E+02      982.00
  0.24975E+00  0.61033E+02    0.13750E+00  0.13750E+00 -0.27500E+00  0.00000E+00  0.00000E+00  0.00000E+00    0.18307E+02  0.18057E+02 -0.36364E+02 -0.23580E+01  0.21451E+01  0.15484E+02      982.00
  0.27209E+00  0.61377E+02    0.15000E+00  0.15000E+00 -0.30000E+00  0.00000E+00  0.00000E+00  0.00000E+00    0.18356E+02  0.18132E+02 -0.36488E+02 -0.23243E+01  0.20979E+01  0.15727E+02      982.00
  0.29439E+00  0.61703E+02    0.16250E+00  0.16250E+00 -0.32500E+00  0.00000E+00  0.00000E+00  0.00000E+00    0.18405E+02  0.18204E+02 -0.36609E+02 -0.22898E+01  0.20509E+01  0.15952E+02      982.00
  0.31664E+00  0.62009E+02    0.17500E+00  0.17500E+00 -0.35000E+00  0.00000E+00  0.00000E+00  0.00000E+00    0.18452E+02  0.18272E+02 -0.36725E+02 -0.22560E+01  0.20055E+01  0.16158E+02      982.00
  0.33884E+00  0.62297E+02    0.18750E+00  0.18750E+00 -0.37500E+00  0.00000E+00  0.00000E+00  0.00000E+00    0.18499E+02  0.18337E+02 -0.36835E+02 -0.22241E+01  0.19627E+01  0.16346E+02      982.00
  0.36102E+00  0.62550E+02    0.20000E+00  0.20000E+00 -0.40000E+00  0.00000E+00  0.00000E+00  0.00000E+00    0.18545E+02  0.18391E+02 -0.36935E+02 -0.22019E+01  0.19345E+01  0.16505E+02      982.00
  0.38316E+00  0.62802E+02    0.21250E+00  0.21250E+00 -0.42500E+00  0.00000E+00  0.00000E+00  0.00000E+00    0.18590E+02  0.18446E+02 -0.37036E+02 -0.21746E+01  0.18979E+01  0.16661E+02      982.00
  0.40528E+00  0.63019E+02    0.22500E+00  0.22500E+00 -0.45000E+00  0.00000E+00  0.00000E+00  0.00000E+00    0.18628E+02  0.18497E+02 -0.37124E+02 -0.21477E+01  0.18591E+01  0.16795E+02      982.00
  0.42737E+00  0.63234E+02    0.23750E+00  0.23750E+00 -0.47500E+00  0.00000E+00  0.00000E+00  0.00000E+00    0.18667E+02  0.18544E+02 -0.37212E+02 -0.21206E+01  0.18202E+01  0.16926E+02      982.00
  0.44944E+00  0.63426E+02    0.25000E+00  0.25000E+00 -0.50000E+00  0.00000E+00  0.00000E+00  0.00000E+00    0.18707E+02  0.18585E+02 -0.37292E+02 -0.21029E+01  0.17942E+01  0.17038E+02      982.00
  0.47148E+00  0.63611E+02    0.26250E+00  0.26250E+00 -0.52500E+00  0.00000E+00  0.00000E+00  0.00000E+00    0.18750E+02  0.18622E+02 -0.37372E+02 -0.20885E+01  0.17728E+01  0.17141E+02      982.00
  0.49351E+00  0.63803E+02    0.27500E+00  0.27500E+00 -0.55000E+00  0.00000E+00  0.00000E+00  0.00000E+00    0.18794E+02  0.18659E+02 -0.37453E+02 -0.20677E+01  0.17421E+01  0.17251E+02      982.00
  0.51553E+00  0.63959E+02    0.28750E+00  0.28750E+00 -0.57500E+00  0.00000E+00  0.00000E+00  0.00000E+00    0.18835E+02  0.18688E+02 -0.37522E+02 -0.20584E+01  0.17262E+01  0.17333E+02      982.00
  0.53753E+00  0.64102E+02    0.30000E+00  0.30000E+00 -0.60000E+00  0.00000E+00  0.00000E+00  0.00000E+00    0.18874E+02  0.18712E+02 -0.37587E+02 -0.20513E+01  0.17134E+01  0.17406E+02      982.00
  0.55952E+00  0.64234E+02    0.31250E+00  0.31250E+00 -0.62500E+00  0.00000E+00  0.00000E+00  0.00000E+00    0.18913E+02  0.18734E+02 -0.37647E+02 -0.20457E+01  0.17026E+01  0.17472E+02      982.00
  0.58149E+00  0.64318E+02    0.32500E+00  0.32500E+00 -0.65000E+00  0.00000E+00  0.00000E+00  0.00000E+00    0.18940E+02  0.18748E+02 -0.37688E+02 -0.20477E+01  0.17031E+01  0.17509E+02      982.00
  0.60347E+00  0.64462E+02    0.33750E+00  0.33750E+00 -0.67500E+00  0.00000E+00  0.00000E+00  0.00000E+00    0.18987E+02  0.18761E+02 -0.37748E+02 -0.20346E+01  0.16799E+01  0.17592E+02      982.00
  0.62543E+00  0.64571E+02    0.35000E+00  0.35000E+00 -0.70000E+00  0.00000E+00  0.00000E+00  0.00000E+00    0.19025E+02  0.18776E+02 -0.37800E+02 -0.20320E+01  0.16717E+01  0.17642E+02      982.00
  0.64738E+00  0.64666E+02    0.36250E+00  0.36250E+00 -0.72500E+00  0.00000E+00  0.00000E+00  0.00000E+00    0.19059E+02  0.18786E+02 -0.37845E+02 -0.20312E+01  0.16664E+01  0.17686E+02      982.00
  0.66933E+00  0.64756E+02    0.37500E+00  0.37500E+00 -0.75000E+00  0.00000E+00  0.00000E+00  0.00000E+00    0.19094E+02  0.18794E+02 -0.37888E+02 -0.20312E+01  0.16622E+01  0.17727E+02      982.00
  0.69127E+00  0.64839E+02    0.38750E+00  0.38750E+00 -0.77500E+00  0.00000E+00  0.00000E+00  0.00000E+00    0.19127E+02  0.18800E+02 -0.37927E+02 -0.20317E+01  0.16588E+01  0.17765E+02      982.00
  0.71320E+00  0.64916E+02    0.40000E+00  0.40000E+00 -0.80000E+00  0.00000E+00  0.00000E+00  0.00000E+00    0.19160E+02  0.18805E+02 -0.37965E+02 -0.20328E+01  0.16560E+01  0.17799E+02      982.00
  0.73513E+00  0.64988E+02    0.41250E+00  0.41250E+00 -0.82500E+00  0.00000E+00  0.00000E+00  0.00000E+00    0.19192E+02  0.18807E+02 -0.37999E+02 -0.20342E+01  0.16537E+01  0.17831E+02      982.00
  0.75706E+00  0.65093E+02    0.42500E+00  0.42500E+00 -0.85000E+00  0.00000E+00  0.00000E+00  0.00000E+00    0.19243E+02  0.18805E+02 -0.38048E+02 -0.20336E+01  0.16462E+01  0.17882E+02      982.00
  0.77898E+00  0.65118E+02    0.43750E+00  0.43750E+00 -0.87500E+00  0.00000E+00  0.00000E+00  0.00000E+00    0.19255E+02  0.18808E+02 -0.38062E+02 -0.20374E+01  0.16487E+01  0.17888E+02      982.00
  0.80090E+00  0.65209E+02    0.45000E+00  0.45000E+00 -0.90000E+00  0.00000E+00  0.00000E+00  0.00000E+00    0.19303E+02  0.18801E+02 -0.38104E+02 -0.20391E+01  0.16443E+01  0.17932E+02      982.00
  0.82281E+00  0.65261E+02    0.46250E+00  0.46250E+00 -0.92500E+00  0.00000E+00  0.00000E+00  0.00000E+00    0.19334E+02  0.18795E+02 -0.38129E+02 -0.20414E+01  0.16422E+01  0.17954E+02      982.00
  0.84472E+00  0.65311E+02    0.47500E+00  0.47500E+00 -0.95000E+00  0.00000E+00  0.00000E+00  0.00000E+00    0.19363E+02  0.18790E+02 -0.38154E+02 -0.20445E+01  0.16416E+01  0.17975E+02      982.00
  0.86663E+00  0.65357E+02    0.48750E+00  0.48750E+00 -0.97500E+00  0.00000E+00  0.00000E+00  0.00000E+00    0.19391E+02  0.18785E+02 -0.38176E+02 -0.20480E+01  0.16416E+01  0.17994E+02      982.00
  0.88853E+00  0.65347E+02    0.50000E+00  0.50000E+00 -0.10000E+01  0.00000E+00  0.00000E+00  0.00000E+00    0.19375E+02  0.18799E+02 -0.38174E+02 -0.20492E+01  0.16468E+01  0.17986E+02      982.00
