          Evm          Svm            E11          E22          E33          E23          E13          E12         SDEV11       SDEV22       SDEV33       SDEV23       SDEV13       SDEV12      TEMP
  0.00000E+00  0.61324E+02    0.00000E+00  0.00000E+00  0.00000E+00  0.00000E+00  0.00000E+00  0.00000E+00    0.19740E+02  0.19008E+02 -0.38748E+02  0.53755E+01  0.60165E+01 -0.78886E+01      982.00
  0.23695E-01  0.61197E+02    0.12500E-01  0.12500E-01 -0.25000E-01  0.00000E+00  0.00000E+00  0.00000E+00    0.19612E+02  0.19183E+02 -0.38795E+02  0.53902E+01  0.56754E+01 -0.76325E+01      982.00
  0.47468E-01  0.61167E+02    0.25000E-01  0.25000E-01 -0.50000E-01  0.00000E+00  0.00000E+00  0.00000E+00    0.19572E+02  0.19296E+02 -0.38868E+02  0.54520E+01  0.54102E+01 -0.74207E+01      982.00
  0.71297E-01  0.61211E+02    0.37500E-01  0.37500E-01 -0.75000E-01  0.00000E+00  0.00000E+00  0.00000E+00    0.19566E+02  0.19398E+02 -0.38964E+02  0.55409E+01  0.51956E+01 -0.72527E+01      982.00
  0.95167E-01  0.61315E+02    0.50000E-01  0.50000E-01 -0.10000E+00  0.00000E+00  0.00000E+00  0.00000E+00    0.19587E+02  0.19493E+02 -0.39079E+02  0.56261E+01  0.50307E+01 -0.71273E+01      982.00
  0.11907E+00  0.61469E+02    0.62500E-01  0.62500E-01 -0.12500E+00  0.00000E+00  0.00000E+00  0.00000E+00    0.19622E+02  0.19594E+02 -0.39216E+02  0.56964E+01  0.49043E+01 -0.70389E+01      982.00
  0.14299E+00  0.61663E+02    0.75000E-01  0.75000E-01 -0.15000E+00  0.00000E+00  0.00000E+00  0.00000E+00    0.19668E+02  0.19703E+02 -0.39371E+02  0.57462E+01  0.48104E+01 -0.69829E+01      982.00
  0.16694E+00  0.61894E+02    0.87500E-01  0.87500E-01 -0.17500E+00  0.00000E+00  0.00000E+00  0.00000E+00    0.19708E+02  0.19836E+02 -0.39544E+02  0.57800E+01  0.47345E+01 -0.69507E+01      982.00
  0.19089E+00  0.62151E+02    0.10000E+00  0.10000E+00 -0.20000E+00  0.00000E+00  0.00000E+00  0.00000E+00    0.19744E+02  0.19987E+02 -0.39730E+02  0.57991E+01  0.46780E+01 -0.69404E+01      982.00
  0.21487E+00  0.62437E+02    0.11250E+00  0.11250E+00 -0.22500E+00  0.00000E+00  0.00000E+00  0.00000E+00    0.19774E+02  0.20159E+02 -0.39933E+02  0.58062E+01  0.46342E+01 -0.69451E+01      982.00
  0.23885E+00  0.62742E+02    0.12500E+00  0.12500E+00 -0.25000E+00  0.00000E+00  0.00000E+00  0.00000E+00    0.19796E+02  0.20351E+02 -0.40147E+02  0.58039E+01  0.45998E+01 -0.69600E+01      982.00
  0.26285E+00  0.63060E+02    0.13750E+00  0.13750E+00 -0.27500E+00  0.00000E+00  0.00000E+00  0.00000E+00    0.19807E+02  0.20560E+02 -0.40367E+02  0.57938E+01  0.45729E+01 -0.69810E+01      982.00
  0.28685E+00  0.63383E+02    0.15000E+00  0.15000E+00 -0.30000E+00  0.00000E+00  0.00000E+00  0.00000E+00    0.19809E+02  0.20782E+02 -0.40591E+02  0.57774E+01  0.45521E+01 -0.70046E+01      982.00
  0.31087E+00  0.63707E+02    0.16250E+00  0.16250E+00 -0.32500E+00  0.00000E+00  0.00000E+00  0.00000E+00    0.19801E+02  0.21013E+02 -0.40815E+02  0.57556E+01  0.45364E+01 -0.70283E+01      982.00
  0.33489E+00  0.64025E+02    0.17500E+00  0.17500E+00 -0.35000E+00  0.00000E+00  0.00000E+00  0.00000E+00    0.19784E+02  0.21251E+02 -0.41034E+02  0.57293E+01  0.45248E+01 -0.70499E+01      982.00
  0.35893E+00  0.64334E+02    0.18750E+00  0.18750E+00 -0.37500E+00  0.00000E+00  0.00000E+00  0.00000E+00    0.19756E+02  0.21492E+02 -0.41248E+02  0.56992E+01  0.45167E+01 -0.70681E+01      982.00
  0.38297E+00  0.64631E+02    0.20000E+00  0.20000E+00 -0.40000E+00  0.00000E+00  0.00000E+00  0.00000E+00    0.19720E+02  0.21733E+02 -0.41453E+02  0.56657E+01  0.45114E+01 -0.70821E+01      982.00
  0.40702E+00  0.64916E+02    0.21250E+00  0.21250E+00 -0.42500E+00  0.00000E+00  0.00000E+00  0.00000E+00    0.19672E+02  0.21979E+02 -0.41651E+02  0.56305E+01  0.45047E+01 -0.70900E+01      982.00
  0.43108E+00  0.65182E+02    0.22500E+00  0.22500E+00 -0.45000E+00  0.00000E+00  0.00000E+00  0.00000E+00    0.19620E+02  0.22216E+02 -0.41835E+02  0.55920E+01  0.45042E+01 -0.70946E+01      982.00
  0.45515E+00  0.65431E+02    0.23750E+00  0.23750E+00 -0.47500E+00  0.00000E+00  0.00000E+00  0.00000E+00    0.19560E+02  0.22449E+02 -0.42009E+02  0.55513E+01  0.45055E+01 -0.70945E+01      982.00
  0.47923E+00  0.65661E+02    0.25000E+00  0.25000E+00 -0.50000E+00  0.00000E+00  0.00000E+00  0.00000E+00    0.19488E+02  0.22682E+02 -0.42169E+02  0.55116E+01  0.45024E+01 -0.70883E+01      982.00
  0.50331E+00  0.65878E+02    0.26250E+00  0.26250E+00 -0.52500E+00  0.00000E+00  0.00000E+00  0.00000E+00    0.19416E+02  0.22904E+02 -0.42320E+02  0.54679E+01  0.45065E+01 -0.70793E+01      982.00
  0.52740E+00  0.66078E+02    0.27500E+00  0.27500E+00 -0.55000E+00  0.00000E+00  0.00000E+00  0.00000E+00    0.19341E+02  0.23120E+02 -0.42460E+02  0.54229E+01  0.45117E+01 -0.70663E+01      982.00
  0.55150E+00  0.66263E+02    0.28750E+00  0.28750E+00 -0.57500E+00  0.00000E+00  0.00000E+00  0.00000E+00    0.19260E+02  0.23330E+02 -0.42590E+02  0.53768E+01  0.45177E+01 -0.70494E+01      982.00
  0.57560E+00  0.66429E+02    0.30000E+00  0.30000E+00 -0.60000E+00  0.00000E+00  0.00000E+00  0.00000E+00    0.19169E+02  0.23538E+02 -0.42706E+02  0.53345E+01  0.45183E+01 -0.70281E+01      982.00
  0.59971E+00  0.66586E+02    0.31250E+00  0.31250E+00 -0.62500E+00  0.00000E+00  0.00000E+00  0.00000E+00    0.19082E+02  0.23735E+02 -0.42817E+02  0.52872E+01  0.45256E+01 -0.70046E+01      982.00
  0.62382E+00  0.66729E+02    0.32500E+00  0.32500E+00 -0.65000E+00  0.00000E+00  0.00000E+00  0.00000E+00    0.18992E+02  0.23927E+02 -0.42918E+02  0.52397E+01  0.45327E+01 -0.69779E+01      982.00
  0.64794E+00  0.66861E+02    0.33750E+00  0.33750E+00 -0.67500E+00  0.00000E+00  0.00000E+00  0.00000E+00    0.18900E+02  0.24112E+02 -0.43012E+02  0.51915E+01  0.45412E+01 -0.69488E+01      982.00
  0.67206E+00  0.66979E+02    0.35000E+00  0.35000E+00 -0.70000E+00  0.00000E+00  0.00000E+00  0.00000E+00    0.18798E+02  0.24296E+02 -0.43094E+02  0.51481E+01  0.45448E+01 -0.69158E+01      982.00
  0.69619E+00  0.67089E+02    0.36250E+00  0.36250E+00 -0.72500E+00  0.00000E+00  0.00000E+00  0.00000E+00    0.18703E+02  0.24469E+02 -0.43173E+02  0.50997E+01  0.45538E+01 -0.68820E+01      982.00
  0.72032E+00  0.67190E+02    0.37500E+00  0.37500E+00 -0.75000E+00  0.00000E+00  0.00000E+00  0.00000E+00    0.18608E+02  0.24637E+02 -0.43244E+02  0.50510E+01  0.45634E+01 -0.68462E+01      982.00
  0.74446E+00  0.67275E+02    0.38750E+00  0.38750E+00 -0.77500E+00  0.00000E+00  0.00000E+00  0.00000E+00    0.18511E+02  0.24794E+02 -0.43304E+02  0.50078E+01  0.45652E+01 -0.68108E+01      982.00
  0.76860E+00  0.67360E+02    0.40000E+00  0.40000E+00 -0.80000E+00  0.00000E+00  0.00000E+00  0.00000E+00    0.18414E+02  0.24951E+02 -0.43365E+02  0.49593E+01  0.45756E+01 -0.67715E+01      982.00
  0.79274E+00  0.67433E+02    0.41250E+00  0.41250E+00 -0.82500E+00  0.00000E+00  0.00000E+00  0.00000E+00    0.18302E+02  0.25116E+02 -0.43417E+02  0.49126E+01  0.45831E+01 -0.67225E+01      982.00
  0.81688E+00  0.67503E+02    0.42500E+00  0.42500E+00 -0.85000E+00  0.00000E+00  0.00000E+00  0.00000E+00    0.18206E+02  0.25262E+02 -0.43467E+02  0.48641E+01  0.45938E+01 -0.66801E+01      982.00
  0.84103E+00  0.67567E+02    0.43750E+00  0.43750E+00 -0.87500E+00  0.00000E+00  0.00000E+00  0.00000E+00    0.18110E+02  0.25402E+02 -0.43513E+02  0.48158E+01  0.46054E+01 -0.66367E+01      982.00
  0.86518E+00  0.67625E+02    0.45000E+00  0.45000E+00 -0.90000E+00  0.00000E+00  0.00000E+00  0.00000E+00    0.17984E+02  0.25572E+02 -0.43556E+02  0.47570E+01  0.46177E+01 -0.65715E+01      982.00
  0.88933E+00  0.67676E+02    0.46250E+00  0.46250E+00 -0.92500E+00  0.00000E+00  0.00000E+00  0.00000E+00    0.17890E+02  0.25703E+02 -0.43593E+02  0.47090E+01  0.46290E+01 -0.65251E+01      982.00
  0.91349E+00  0.67663E+02    0.47500E+00  0.47500E+00 -0.95000E+00  0.00000E+00  0.00000E+00  0.00000E+00    0.17829E+02  0.25763E+02 -0.43593E+02  0.46476E+01  0.46241E+01 -0.64913E+01      982.00
  0.93765E+00  0.67653E+02    0.48750E+00  0.48750E+00 -0.97500E+00  0.00000E+00  0.00000E+00  0.00000E+00    0.17739E+02  0.25855E+02 -0.43595E+02  0.45844E+01  0.46218E+01 -0.64363E+01      982.00
  0.96181E+00  0.67646E+02    0.50000E+00  0.50000E+00 -0.10000E+01  0.00000E+00  0.00000E+00  0.00000E+00    0.17654E+02  0.25942E+02 -0.43596E+02  0.45290E+01  0.46230E+01 -0.63871E+01      982.00
