          Evm          Svm            E11          E22          E33          E23          E13          E12         SDEV11       SDEV22       SDEV33       SDEV23       SDEV13       SDEV12      TEMP
  0.00000E+00  0.62781E+02    0.00000E+00  0.00000E+00  0.00000E+00  0.00000E+00  0.00000E+00  0.00000E+00    0.20906E+02  0.18610E+02 -0.39516E+02 -0.46890E+01  0.51773E+01  0.96217E+01      982.00
  0.23603E-01  0.62773E+02    0.12500E-01  0.12500E-01 -0.25000E-01  0.00000E+00  0.00000E+00  0.00000E+00    0.20666E+02  0.18815E+02 -0.39481E+02 -0.47774E+01  0.51300E+01  0.97151E+01      982.00
  0.47189E-01  0.62776E+02    0.25000E-01  0.25000E-01 -0.50000E-01  0.00000E+00  0.00000E+00  0.00000E+00    0.20501E+02  0.18961E+02 -0.39462E+02 -0.47898E+01  0.50505E+01  0.98306E+01      982.00
  0.70762E-01  0.62811E+02    0.37500E-01  0.37500E-01 -0.75000E-01  0.00000E+00  0.00000E+00  0.00000E+00    0.20410E+02  0.19052E+02 -0.39463E+02 -0.47380E+01  0.49496E+01  0.99848E+01      982.00
  0.94323E-01  0.62891E+02    0.50000E-01  0.50000E-01 -0.10000E+00  0.00000E+00  0.00000E+00  0.00000E+00    0.20367E+02  0.19122E+02 -0.39489E+02 -0.46477E+01  0.48259E+01  0.10180E+02      982.00
  0.11787E+00  0.62988E+02    0.62500E-01  0.62500E-01 -0.12500E+00  0.00000E+00  0.00000E+00  0.00000E+00    0.20367E+02  0.19152E+02 -0.39519E+02 -0.45130E+01  0.46811E+01  0.10418E+02      982.00
  0.14140E+00  0.63102E+02    0.75000E-01  0.75000E-01 -0.15000E+00  0.00000E+00  0.00000E+00  0.00000E+00    0.20403E+02  0.19147E+02 -0.39550E+02 -0.43679E+01  0.45484E+01  0.10677E+02      982.00
  0.16490E+00  0.63237E+02    0.87500E-01  0.87500E-01 -0.17500E+00  0.00000E+00  0.00000E+00  0.00000E+00    0.20451E+02  0.19134E+02 -0.39585E+02 -0.42123E+01  0.44046E+01  0.10963E+02      982.00
  0.18837E+00  0.63385E+02    0.10000E+00  0.10000E+00 -0.20000E+00  0.00000E+00  0.00000E+00  0.00000E+00    0.20502E+02  0.19119E+02 -0.39621E+02 -0.40607E+01  0.42627E+01  0.11257E+02      982.00
  0.21181E+00  0.63548E+02    0.11250E+00  0.11250E+00 -0.22500E+00  0.00000E+00  0.00000E+00  0.00000E+00    0.20559E+02  0.19099E+02 -0.39657E+02 -0.39028E+01  0.41151E+01  0.11572E+02      982.00
  0.23522E+00  0.63721E+02    0.12500E+00  0.12500E+00 -0.25000E+00  0.00000E+00  0.00000E+00  0.00000E+00    0.20617E+02  0.19076E+02 -0.39692E+02 -0.37456E+01  0.39684E+01  0.11894E+02      982.00
  0.25858E+00  0.63899E+02    0.13750E+00  0.13750E+00 -0.27500E+00  0.00000E+00  0.00000E+00  0.00000E+00    0.20673E+02  0.19053E+02 -0.39725E+02 -0.35896E+01  0.38227E+01  0.12219E+02      982.00
  0.28189E+00  0.64077E+02    0.15000E+00  0.15000E+00 -0.30000E+00  0.00000E+00  0.00000E+00  0.00000E+00    0.20723E+02  0.19031E+02 -0.39754E+02 -0.34346E+01  0.36769E+01  0.12542E+02      982.00
  0.30515E+00  0.64254E+02    0.16250E+00  0.16250E+00 -0.32500E+00  0.00000E+00  0.00000E+00  0.00000E+00    0.20765E+02  0.19014E+02 -0.39779E+02 -0.32796E+01  0.35297E+01  0.12862E+02      982.00
  0.32837E+00  0.64426E+02    0.17500E+00  0.17500E+00 -0.35000E+00  0.00000E+00  0.00000E+00  0.00000E+00    0.20802E+02  0.18998E+02 -0.39800E+02 -0.31150E+01  0.33733E+01  0.13178E+02      982.00
  0.35154E+00  0.64587E+02    0.18750E+00  0.18750E+00 -0.37500E+00  0.00000E+00  0.00000E+00  0.00000E+00    0.20822E+02  0.18992E+02 -0.39815E+02 -0.29544E+01  0.32168E+01  0.13479E+02      982.00
  0.37465E+00  0.64739E+02    0.20000E+00  0.20000E+00 -0.40000E+00  0.00000E+00  0.00000E+00  0.00000E+00    0.20829E+02  0.18996E+02 -0.39825E+02 -0.27892E+01  0.30525E+01  0.13769E+02      982.00
  0.39772E+00  0.64880E+02    0.21250E+00  0.21250E+00 -0.42500E+00  0.00000E+00  0.00000E+00  0.00000E+00    0.20822E+02  0.19009E+02 -0.39832E+02 -0.26178E+01  0.28792E+01  0.14045E+02      982.00
  0.42074E+00  0.65012E+02    0.22500E+00  0.22500E+00 -0.45000E+00  0.00000E+00  0.00000E+00  0.00000E+00    0.20803E+02  0.19033E+02 -0.39836E+02 -0.24404E+01  0.26967E+01  0.14307E+02      982.00
  0.44372E+00  0.65141E+02    0.23750E+00  0.23750E+00 -0.47500E+00  0.00000E+00  0.00000E+00  0.00000E+00    0.20777E+02  0.19063E+02 -0.39839E+02 -0.22673E+01  0.25177E+01  0.14555E+02      982.00
  0.46666E+00  0.65258E+02    0.25000E+00  0.25000E+00 -0.50000E+00  0.00000E+00  0.00000E+00  0.00000E+00    0.20738E+02  0.19104E+02 -0.39842E+02 -0.20841E+01  0.23243E+01  0.14784E+02      982.00
  0.48955E+00  0.65371E+02    0.26250E+00  0.26250E+00 -0.52500E+00  0.00000E+00  0.00000E+00  0.00000E+00    0.20692E+02  0.19155E+02 -0.39847E+02 -0.19047E+01  0.21316E+01  0.14996E+02      982.00
  0.51241E+00  0.65486E+02    0.27500E+00  0.27500E+00 -0.55000E+00  0.00000E+00  0.00000E+00  0.00000E+00    0.20649E+02  0.19205E+02 -0.39854E+02 -0.17387E+01  0.19541E+01  0.15195E+02      982.00
  0.53523E+00  0.65593E+02    0.28750E+00  0.28750E+00 -0.57500E+00  0.00000E+00  0.00000E+00  0.00000E+00    0.20596E+02  0.19265E+02 -0.39862E+02 -0.15844E+01  0.17830E+01  0.15373E+02      982.00
  0.55802E+00  0.65695E+02    0.30000E+00  0.30000E+00 -0.60000E+00  0.00000E+00  0.00000E+00  0.00000E+00    0.20535E+02  0.19337E+02 -0.39871E+02 -0.14483E+01  0.16241E+01  0.15532E+02      982.00
  0.58078E+00  0.65801E+02    0.31250E+00  0.31250E+00 -0.62500E+00  0.00000E+00  0.00000E+00  0.00000E+00    0.20482E+02  0.19400E+02 -0.39882E+02 -0.13379E+01  0.14947E+01  0.15684E+02      982.00
  0.60351E+00  0.65906E+02    0.32500E+00  0.32500E+00 -0.65000E+00  0.00000E+00  0.00000E+00  0.00000E+00    0.20433E+02  0.19460E+02 -0.39893E+02 -0.12529E+01  0.13918E+01  0.15828E+02      982.00
  0.62621E+00  0.66003E+02    0.33750E+00  0.33750E+00 -0.67500E+00  0.00000E+00  0.00000E+00  0.00000E+00    0.20376E+02  0.19528E+02 -0.39904E+02 -0.11860E+01  0.13007E+01  0.15957E+02      982.00
  0.64888E+00  0.66105E+02    0.35000E+00  0.35000E+00 -0.70000E+00  0.00000E+00  0.00000E+00  0.00000E+00    0.20331E+02  0.19584E+02 -0.39915E+02 -0.11406E+01  0.12365E+01  0.16086E+02      982.00
  0.67152E+00  0.66203E+02    0.36250E+00  0.36250E+00 -0.72500E+00  0.00000E+00  0.00000E+00  0.00000E+00    0.20290E+02  0.19632E+02 -0.39922E+02 -0.11144E+01  0.11937E+01  0.16212E+02      982.00
  0.69413E+00  0.66291E+02    0.37500E+00  0.37500E+00 -0.75000E+00  0.00000E+00  0.00000E+00  0.00000E+00    0.20242E+02  0.19689E+02 -0.39931E+02 -0.11001E+01  0.11559E+01  0.16320E+02      982.00
  0.71672E+00  0.66385E+02    0.38750E+00  0.38750E+00 -0.77500E+00  0.00000E+00  0.00000E+00  0.00000E+00    0.20205E+02  0.19733E+02 -0.39938E+02 -0.10979E+01  0.11364E+01  0.16437E+02      982.00
  0.73928E+00  0.66475E+02    0.40000E+00  0.40000E+00 -0.80000E+00  0.00000E+00  0.00000E+00  0.00000E+00    0.20171E+02  0.19772E+02 -0.39943E+02 -0.11050E+01  0.11271E+01  0.16549E+02      982.00
  0.76182E+00  0.66562E+02    0.41250E+00  0.41250E+00 -0.82500E+00  0.00000E+00  0.00000E+00  0.00000E+00    0.20139E+02  0.19809E+02 -0.39948E+02 -0.11197E+01  0.11255E+01  0.16656E+02      982.00
  0.78432E+00  0.66644E+02    0.42500E+00  0.42500E+00 -0.85000E+00  0.00000E+00  0.00000E+00  0.00000E+00    0.20109E+02  0.19840E+02 -0.39949E+02 -0.11402E+01  0.11304E+01  0.16761E+02      982.00
  0.80680E+00  0.66723E+02    0.43750E+00  0.43750E+00 -0.87500E+00  0.00000E+00  0.00000E+00  0.00000E+00    0.20075E+02  0.19879E+02 -0.39953E+02 -0.11681E+01  0.11370E+01  0.16856E+02      982.00
  0.82926E+00  0.66798E+02    0.45000E+00  0.45000E+00 -0.90000E+00  0.00000E+00  0.00000E+00  0.00000E+00    0.20049E+02  0.19903E+02 -0.39952E+02 -0.11971E+01  0.11506E+01  0.16954E+02      982.00
  0.85168E+00  0.66867E+02    0.46250E+00  0.46250E+00 -0.92500E+00  0.00000E+00  0.00000E+00  0.00000E+00    0.20026E+02  0.19923E+02 -0.39950E+02 -0.12278E+01  0.11671E+01  0.17046E+02      982.00
  0.87409E+00  0.66933E+02    0.47500E+00  0.47500E+00 -0.95000E+00  0.00000E+00  0.00000E+00  0.00000E+00    0.20005E+02  0.19941E+02 -0.39946E+02 -0.12598E+01  0.11853E+01  0.17135E+02      982.00
  0.89647E+00  0.66996E+02    0.48750E+00  0.48750E+00 -0.97500E+00  0.00000E+00  0.00000E+00  0.00000E+00    0.19986E+02  0.19956E+02 -0.39942E+02 -0.12925E+01  0.12045E+01  0.17219E+02      982.00
  0.91883E+00  0.67063E+02    0.50000E+00  0.50000E+00 -0.10000E+01  0.00000E+00  0.00000E+00  0.00000E+00    0.19961E+02  0.19977E+02 -0.39938E+02 -0.13348E+01  0.12270E+01  0.17309E+02      982.00
