          Evm          Svm            E11          E22          E33          E23          E13          E12         SDEV11       SDEV22       SDEV33       SDEV23       SDEV13       SDEV12      TEMP
  0.00000E+00  0.63345E+02    0.00000E+00  0.00000E+00  0.00000E+00  0.00000E+00  0.00000E+00  0.00000E+00    0.21406E+02  0.19728E+02 -0.41133E+02 -0.25299E+01  0.28783E+01  0.72914E+01      982.00
  0.24351E-01  0.63399E+02    0.12500E-01  0.12500E-01 -0.25000E-01  0.00000E+00  0.00000E+00  0.00000E+00    0.22097E+02  0.19063E+02 -0.41160E+02 -0.23105E+01  0.26859E+01  0.73745E+01      982.00
  0.48696E-01  0.63451E+02    0.25000E-01  0.25000E-01 -0.50000E-01  0.00000E+00  0.00000E+00  0.00000E+00    0.22626E+02  0.18551E+02 -0.41177E+02 -0.20533E+01  0.26583E+01  0.74120E+01      982.00
  0.73032E-01  0.63518E+02    0.37500E-01  0.37500E-01 -0.75000E-01  0.00000E+00  0.00000E+00  0.00000E+00    0.23062E+02  0.18134E+02 -0.41196E+02 -0.18070E+01  0.27059E+01  0.74390E+01      982.00
  0.97354E-01  0.63609E+02    0.50000E-01  0.50000E-01 -0.10000E+00  0.00000E+00  0.00000E+00  0.00000E+00    0.23428E+02  0.17797E+02 -0.41225E+02 -0.15915E+01  0.27850E+01  0.74740E+01      982.00
  0.12166E+00  0.63728E+02    0.62500E-01  0.62500E-01 -0.12500E+00  0.00000E+00  0.00000E+00  0.00000E+00    0.23746E+02  0.17521E+02 -0.41267E+02 -0.14129E+01  0.28704E+01  0.75243E+01      982.00
  0.14594E+00  0.63876E+02    0.75000E-01  0.75000E-01 -0.15000E+00  0.00000E+00  0.00000E+00  0.00000E+00    0.24030E+02  0.17294E+02 -0.41324E+02 -0.12697E+01  0.29510E+01  0.75929E+01      982.00
  0.17020E+00  0.64056E+02    0.87500E-01  0.87500E-01 -0.17500E+00  0.00000E+00  0.00000E+00  0.00000E+00    0.24279E+02  0.17119E+02 -0.41398E+02 -0.11571E+01  0.30253E+01  0.76869E+01      982.00
  0.19444E+00  0.64256E+02    0.10000E+00  0.10000E+00 -0.20000E+00  0.00000E+00  0.00000E+00  0.00000E+00    0.24514E+02  0.16969E+02 -0.41483E+02 -0.10731E+01  0.30868E+01  0.77940E+01      982.00
  0.21865E+00  0.64488E+02    0.11250E+00  0.11250E+00 -0.22500E+00  0.00000E+00  0.00000E+00  0.00000E+00    0.24728E+02  0.16858E+02 -0.41586E+02 -0.10131E+01  0.31430E+01  0.79246E+01      982.00
  0.24283E+00  0.64737E+02    0.12500E+00  0.12500E+00 -0.25000E+00  0.00000E+00  0.00000E+00  0.00000E+00    0.24926E+02  0.16773E+02 -0.41699E+02 -0.97404E+00  0.31894E+01  0.80676E+01      982.00
  0.26698E+00  0.64986E+02    0.13750E+00  0.13750E+00 -0.27500E+00  0.00000E+00  0.00000E+00  0.00000E+00    0.25114E+02  0.16698E+02 -0.41813E+02 -0.95316E+00  0.32209E+01  0.82165E+01      982.00
  0.29111E+00  0.65250E+02    0.15000E+00  0.15000E+00 -0.30000E+00  0.00000E+00  0.00000E+00  0.00000E+00    0.25283E+02  0.16653E+02 -0.41936E+02 -0.94889E+00  0.32474E+01  0.83774E+01      982.00
  0.31521E+00  0.65515E+02    0.16250E+00  0.16250E+00 -0.32500E+00  0.00000E+00  0.00000E+00  0.00000E+00    0.25436E+02  0.16623E+02 -0.42059E+02 -0.95869E+00  0.32636E+01  0.85435E+01      982.00
  0.33929E+00  0.65756E+02    0.17500E+00  0.17500E+00 -0.35000E+00  0.00000E+00  0.00000E+00  0.00000E+00    0.25569E+02  0.16601E+02 -0.42171E+02 -0.97969E+00  0.32623E+01  0.87056E+01      982.00
  0.36334E+00  0.66008E+02    0.18750E+00  0.18750E+00 -0.37500E+00  0.00000E+00  0.00000E+00  0.00000E+00    0.25689E+02  0.16600E+02 -0.42289E+02 -0.10129E+01  0.32570E+01  0.88776E+01      982.00
  0.38736E+00  0.66250E+02    0.20000E+00  0.20000E+00 -0.40000E+00  0.00000E+00  0.00000E+00  0.00000E+00    0.25790E+02  0.16612E+02 -0.42402E+02 -0.10554E+01  0.32411E+01  0.90499E+01      982.00
  0.41136E+00  0.66466E+02    0.21250E+00  0.21250E+00 -0.42500E+00  0.00000E+00  0.00000E+00  0.00000E+00    0.25872E+02  0.16627E+02 -0.42500E+02 -0.11061E+01  0.32049E+01  0.92216E+01      982.00
  0.43534E+00  0.66683E+02    0.22500E+00  0.22500E+00 -0.45000E+00  0.00000E+00  0.00000E+00  0.00000E+00    0.25936E+02  0.16664E+02 -0.42600E+02 -0.11636E+01  0.31693E+01  0.93919E+01      982.00
  0.45930E+00  0.66882E+02    0.23750E+00  0.23750E+00 -0.47500E+00  0.00000E+00  0.00000E+00  0.00000E+00    0.25981E+02  0.16711E+02 -0.42692E+02 -0.12257E+01  0.31244E+01  0.95572E+01      982.00
  0.48323E+00  0.67086E+02    0.25000E+00  0.25000E+00 -0.50000E+00  0.00000E+00  0.00000E+00  0.00000E+00    0.26017E+02  0.16770E+02 -0.42788E+02 -0.12904E+01  0.30843E+01  0.97219E+01      982.00
  0.50715E+00  0.67264E+02    0.26250E+00  0.26250E+00 -0.52500E+00  0.00000E+00  0.00000E+00  0.00000E+00    0.26037E+02  0.16833E+02 -0.42870E+02 -0.13580E+01  0.30282E+01  0.98806E+01      982.00
  0.53105E+00  0.67433E+02    0.27500E+00  0.27500E+00 -0.55000E+00  0.00000E+00  0.00000E+00  0.00000E+00    0.26043E+02  0.16904E+02 -0.42947E+02 -0.14264E+01  0.29685E+01  0.10034E+02      982.00
  0.55493E+00  0.67602E+02    0.28750E+00  0.28750E+00 -0.57500E+00  0.00000E+00  0.00000E+00  0.00000E+00    0.26043E+02  0.16981E+02 -0.43024E+02 -0.14970E+01  0.29074E+01  0.10188E+02      982.00
  0.57880E+00  0.67746E+02    0.30000E+00  0.30000E+00 -0.60000E+00  0.00000E+00  0.00000E+00  0.00000E+00    0.26027E+02  0.17064E+02 -0.43091E+02 -0.15598E+01  0.28478E+01  0.10325E+02      982.00
  0.60265E+00  0.67887E+02    0.31250E+00  0.31250E+00 -0.62500E+00  0.00000E+00  0.00000E+00  0.00000E+00    0.26007E+02  0.17149E+02 -0.43156E+02 -0.16242E+01  0.27851E+01  0.10458E+02      982.00
  0.62649E+00  0.68020E+02    0.32500E+00  0.32500E+00 -0.65000E+00  0.00000E+00  0.00000E+00  0.00000E+00    0.25982E+02  0.17236E+02 -0.43218E+02 -0.16859E+01  0.27237E+01  0.10583E+02      982.00
  0.65032E+00  0.68125E+02    0.33750E+00  0.33750E+00 -0.67500E+00  0.00000E+00  0.00000E+00  0.00000E+00    0.25939E+02  0.17329E+02 -0.43268E+02 -0.17433E+01  0.26548E+01  0.10691E+02      982.00
  0.67414E+00  0.68244E+02    0.35000E+00  0.35000E+00 -0.70000E+00  0.00000E+00  0.00000E+00  0.00000E+00    0.25907E+02  0.17418E+02 -0.43324E+02 -0.17991E+01  0.25983E+01  0.10801E+02      982.00
  0.69794E+00  0.68357E+02    0.36250E+00  0.36250E+00 -0.72500E+00  0.00000E+00  0.00000E+00  0.00000E+00    0.25873E+02  0.17505E+02 -0.43378E+02 -0.18517E+01  0.25444E+01  0.10904E+02      982.00
  0.72174E+00  0.68463E+02    0.37500E+00  0.37500E+00 -0.75000E+00  0.00000E+00  0.00000E+00  0.00000E+00    0.25838E+02  0.17592E+02 -0.43430E+02 -0.19010E+01  0.24933E+01  0.10998E+02      982.00
  0.74553E+00  0.68563E+02    0.38750E+00  0.38750E+00 -0.77500E+00  0.00000E+00  0.00000E+00  0.00000E+00    0.25802E+02  0.17676E+02 -0.43478E+02 -0.19472E+01  0.24452E+01  0.11086E+02      982.00
  0.76931E+00  0.68637E+02    0.40000E+00  0.40000E+00 -0.80000E+00  0.00000E+00  0.00000E+00  0.00000E+00    0.25751E+02  0.17764E+02 -0.43515E+02 -0.19948E+01  0.23895E+01  0.11160E+02      982.00
  0.79308E+00  0.68728E+02    0.41250E+00  0.41250E+00 -0.82500E+00  0.00000E+00  0.00000E+00  0.00000E+00    0.25716E+02  0.17844E+02 -0.43560E+02 -0.20358E+01  0.23473E+01  0.11236E+02      982.00
  0.81685E+00  0.68811E+02    0.42500E+00  0.42500E+00 -0.85000E+00  0.00000E+00  0.00000E+00  0.00000E+00    0.25681E+02  0.17921E+02 -0.43602E+02 -0.20737E+01  0.23079E+01  0.11305E+02      982.00
  0.84061E+00  0.68890E+02    0.43750E+00  0.43750E+00 -0.87500E+00  0.00000E+00  0.00000E+00  0.00000E+00    0.25647E+02  0.17995E+02 -0.43642E+02 -0.21091E+01  0.22711E+01  0.11368E+02      982.00
  0.86437E+00  0.68963E+02    0.45000E+00  0.45000E+00 -0.90000E+00  0.00000E+00  0.00000E+00  0.00000E+00    0.25613E+02  0.18067E+02 -0.43680E+02 -0.21423E+01  0.22367E+01  0.11426E+02      982.00
  0.88812E+00  0.69033E+02    0.46250E+00  0.46250E+00 -0.92500E+00  0.00000E+00  0.00000E+00  0.00000E+00    0.25580E+02  0.18136E+02 -0.43715E+02 -0.21734E+01  0.22044E+01  0.11480E+02      982.00
  0.91187E+00  0.69097E+02    0.47500E+00  0.47500E+00 -0.95000E+00  0.00000E+00  0.00000E+00  0.00000E+00    0.25547E+02  0.18202E+02 -0.43749E+02 -0.22025E+01  0.21743E+01  0.11529E+02      982.00
  0.93561E+00  0.69158E+02    0.48750E+00  0.48750E+00 -0.97500E+00  0.00000E+00  0.00000E+00  0.00000E+00    0.25516E+02  0.18265E+02 -0.43781E+02 -0.22299E+01  0.21461E+01  0.11575E+02      982.00
  0.95935E+00  0.69177E+02    0.50000E+00  0.50000E+00 -0.10000E+01  0.00000E+00  0.00000E+00  0.00000E+00    0.25472E+02  0.18316E+02 -0.43788E+02 -0.22448E+01  0.21125E+01  0.11611E+02      982.00
