          Evm          Svm            E11          E22          E33          E23          E13          E12         SDEV11       SDEV22       SDEV33       SDEV23       SDEV13       SDEV12      TEMP
  0.00000E+00  0.54488E+02    0.00000E+00  0.00000E+00  0.00000E+00  0.00000E+00  0.00000E+00  0.00000E+00    0.20259E+02  0.12902E+02 -0.33160E+02  0.48244E+01  0.65081E+01 -0.92607E+01      982.00
  0.22822E-01  0.54949E+02    0.12500E-01  0.12500E-01 -0.25000E-01  0.00000E+00  0.00000E+00  0.00000E+00    0.20055E+02  0.13362E+02 -0.33417E+02  0.49001E+01  0.67235E+01 -0.94093E+01      982.00
  0.45627E-01  0.55374E+02    0.25000E-01  0.25000E-01 -0.50000E-01  0.00000E+00  0.00000E+00  0.00000E+00    0.19942E+02  0.13736E+02 -0.33677E+02  0.49269E+01  0.68652E+01 -0.95100E+01      982.00
  0.68434E-01  0.55784E+02    0.37500E-01  0.37500E-01 -0.75000E-01  0.00000E+00  0.00000E+00  0.00000E+00    0.19896E+02  0.14047E+02 -0.33943E+02  0.49325E+01  0.69539E+01 -0.95887E+01      982.00
  0.91252E-01  0.56187E+02    0.50000E-01  0.50000E-01 -0.10000E+00  0.00000E+00  0.00000E+00  0.00000E+00    0.19904E+02  0.14311E+02 -0.34215E+02  0.49247E+01  0.70009E+01 -0.96561E+01      982.00
  0.11409E+00  0.56593E+02    0.62500E-01  0.62500E-01 -0.12500E+00  0.00000E+00  0.00000E+00  0.00000E+00    0.19960E+02  0.14535E+02 -0.34495E+02  0.49076E+01  0.70162E+01 -0.97207E+01      982.00
  0.13694E+00  0.57019E+02    0.75000E-01  0.75000E-01 -0.15000E+00  0.00000E+00  0.00000E+00  0.00000E+00    0.20057E+02  0.14730E+02 -0.34787E+02  0.48871E+01  0.70120E+01 -0.97969E+01      982.00
  0.15982E+00  0.57517E+02    0.87500E-01  0.87500E-01 -0.17500E+00  0.00000E+00  0.00000E+00  0.00000E+00    0.20211E+02  0.14910E+02 -0.35121E+02  0.48661E+01  0.69945E+01 -0.98982E+01      982.00
  0.18272E+00  0.57966E+02    0.10000E+00  0.10000E+00 -0.20000E+00  0.00000E+00  0.00000E+00  0.00000E+00    0.20384E+02  0.15053E+02 -0.35438E+02  0.48324E+01  0.69479E+01 -0.99708E+01      982.00
  0.20565E+00  0.58389E+02    0.11250E+00  0.11250E+00 -0.22500E+00  0.00000E+00  0.00000E+00  0.00000E+00    0.20560E+02  0.15183E+02 -0.35743E+02  0.47972E+01  0.68859E+01 -0.10030E+02      982.00
  0.22860E+00  0.58839E+02    0.12500E+00  0.12500E+00 -0.25000E+00  0.00000E+00  0.00000E+00  0.00000E+00    0.20734E+02  0.15330E+02 -0.36064E+02  0.47736E+01  0.68236E+01 -0.10094E+02      982.00
  0.25159E+00  0.59333E+02    0.13750E+00  0.13750E+00 -0.27500E+00  0.00000E+00  0.00000E+00  0.00000E+00    0.20946E+02  0.15457E+02 -0.36403E+02  0.47501E+01  0.67626E+01 -0.10185E+02      982.00
  0.27460E+00  0.59828E+02    0.15000E+00  0.15000E+00 -0.30000E+00  0.00000E+00  0.00000E+00  0.00000E+00    0.21153E+02  0.15595E+02 -0.36748E+02  0.47300E+01  0.66960E+01 -0.10266E+02      982.00
  0.29763E+00  0.60356E+02    0.16250E+00  0.16250E+00 -0.32500E+00  0.00000E+00  0.00000E+00  0.00000E+00    0.21373E+02  0.15738E+02 -0.37112E+02  0.47151E+01  0.66269E+01 -0.10355E+02      982.00
  0.32069E+00  0.60854E+02    0.17500E+00  0.17500E+00 -0.35000E+00  0.00000E+00  0.00000E+00  0.00000E+00    0.21574E+02  0.15885E+02 -0.37459E+02  0.47028E+01  0.65587E+01 -0.10430E+02      982.00
  0.34377E+00  0.61348E+02    0.18750E+00  0.18750E+00 -0.37500E+00  0.00000E+00  0.00000E+00  0.00000E+00    0.21767E+02  0.16037E+02 -0.37805E+02  0.46943E+01  0.64923E+01 -0.10499E+02      982.00
  0.36688E+00  0.61834E+02    0.20000E+00  0.20000E+00 -0.40000E+00  0.00000E+00  0.00000E+00  0.00000E+00    0.21951E+02  0.16194E+02 -0.38146E+02  0.46883E+01  0.64275E+01 -0.10563E+02      982.00
  0.39001E+00  0.62308E+02    0.21250E+00  0.21250E+00 -0.42500E+00  0.00000E+00  0.00000E+00  0.00000E+00    0.22126E+02  0.16355E+02 -0.38480E+02  0.46839E+01  0.63645E+01 -0.10620E+02      982.00
  0.41317E+00  0.62768E+02    0.22500E+00  0.22500E+00 -0.45000E+00  0.00000E+00  0.00000E+00  0.00000E+00    0.22289E+02  0.16518E+02 -0.38807E+02  0.46805E+01  0.63032E+01 -0.10669E+02      982.00
  0.43636E+00  0.63212E+02    0.23750E+00  0.23750E+00 -0.47500E+00  0.00000E+00  0.00000E+00  0.00000E+00    0.22442E+02  0.16683E+02 -0.39125E+02  0.46774E+01  0.62438E+01 -0.10710E+02      982.00
  0.45957E+00  0.63638E+02    0.25000E+00  0.25000E+00 -0.50000E+00  0.00000E+00  0.00000E+00  0.00000E+00    0.22583E+02  0.16849E+02 -0.39432E+02  0.46742E+01  0.61861E+01 -0.10744E+02      982.00
  0.48280E+00  0.64023E+02    0.26250E+00  0.26250E+00 -0.52500E+00  0.00000E+00  0.00000E+00  0.00000E+00    0.22711E+02  0.17001E+02 -0.39713E+02  0.46634E+01  0.61365E+01 -0.10769E+02      982.00
  0.50606E+00  0.64414E+02    0.27500E+00  0.27500E+00 -0.55000E+00  0.00000E+00  0.00000E+00  0.00000E+00    0.22833E+02  0.17165E+02 -0.39998E+02  0.46583E+01  0.60828E+01 -0.10790E+02      982.00
  0.52935E+00  0.64785E+02    0.28750E+00  0.28750E+00 -0.57500E+00  0.00000E+00  0.00000E+00  0.00000E+00    0.22945E+02  0.17327E+02 -0.40272E+02  0.46526E+01  0.60301E+01 -0.10804E+02      982.00
  0.55266E+00  0.65135E+02    0.30000E+00  0.30000E+00 -0.60000E+00  0.00000E+00  0.00000E+00  0.00000E+00    0.23047E+02  0.17487E+02 -0.40534E+02  0.46455E+01  0.59784E+01 -0.10812E+02      982.00
  0.57600E+00  0.65466E+02    0.31250E+00  0.31250E+00 -0.62500E+00  0.00000E+00  0.00000E+00  0.00000E+00    0.23139E+02  0.17644E+02 -0.40783E+02  0.46370E+01  0.59279E+01 -0.10815E+02      982.00
  0.59936E+00  0.65771E+02    0.32500E+00  0.32500E+00 -0.65000E+00  0.00000E+00  0.00000E+00  0.00000E+00    0.23215E+02  0.17801E+02 -0.41016E+02  0.46330E+01  0.58760E+01 -0.10812E+02      982.00
  0.62274E+00  0.66055E+02    0.33750E+00  0.33750E+00 -0.67500E+00  0.00000E+00  0.00000E+00  0.00000E+00    0.23295E+02  0.17938E+02 -0.41233E+02  0.46158E+01  0.58334E+01 -0.10807E+02      982.00
  0.64615E+00  0.66339E+02    0.35000E+00  0.35000E+00 -0.70000E+00  0.00000E+00  0.00000E+00  0.00000E+00    0.23359E+02  0.18096E+02 -0.41455E+02  0.46075E+01  0.57793E+01 -0.10794E+02      982.00
  0.66959E+00  0.66597E+02    0.36250E+00  0.36250E+00 -0.72500E+00  0.00000E+00  0.00000E+00  0.00000E+00    0.23420E+02  0.18238E+02 -0.41658E+02  0.45934E+01  0.57316E+01 -0.10779E+02      982.00
  0.69304E+00  0.66839E+02    0.37500E+00  0.37500E+00 -0.75000E+00  0.00000E+00  0.00000E+00  0.00000E+00    0.23476E+02  0.18374E+02 -0.41850E+02  0.45776E+01  0.56858E+01 -0.10762E+02      982.00
  0.71652E+00  0.67066E+02    0.38750E+00  0.38750E+00 -0.77500E+00  0.00000E+00  0.00000E+00  0.00000E+00    0.23526E+02  0.18505E+02 -0.42031E+02  0.45607E+01  0.56412E+01 -0.10742E+02      982.00
  0.74003E+00  0.67279E+02    0.40000E+00  0.40000E+00 -0.80000E+00  0.00000E+00  0.00000E+00  0.00000E+00    0.23571E+02  0.18632E+02 -0.42203E+02  0.45429E+01  0.55978E+01 -0.10721E+02      982.00
  0.76355E+00  0.67477E+02    0.41250E+00  0.41250E+00 -0.82500E+00  0.00000E+00  0.00000E+00  0.00000E+00    0.23611E+02  0.18754E+02 -0.42364E+02  0.45241E+01  0.55556E+01 -0.10698E+02      982.00
  0.78709E+00  0.67663E+02    0.42500E+00  0.42500E+00 -0.85000E+00  0.00000E+00  0.00000E+00  0.00000E+00    0.23647E+02  0.18870E+02 -0.42517E+02  0.45047E+01  0.55145E+01 -0.10674E+02      982.00
  0.81066E+00  0.67837E+02    0.43750E+00  0.43750E+00 -0.87500E+00  0.00000E+00  0.00000E+00  0.00000E+00    0.23678E+02  0.18982E+02 -0.42661E+02  0.44846E+01  0.54748E+01 -0.10649E+02      982.00
  0.83424E+00  0.67999E+02    0.45000E+00  0.45000E+00 -0.90000E+00  0.00000E+00  0.00000E+00  0.00000E+00    0.23707E+02  0.19090E+02 -0.42796E+02  0.44641E+01  0.54363E+01 -0.10623E+02      982.00
  0.85784E+00  0.68075E+02    0.46250E+00  0.46250E+00 -0.92500E+00  0.00000E+00  0.00000E+00  0.00000E+00    0.23721E+02  0.19161E+02 -0.42883E+02  0.44152E+01  0.53774E+01 -0.10580E+02      982.00
  0.88146E+00  0.68149E+02    0.47500E+00  0.47500E+00 -0.95000E+00  0.00000E+00  0.00000E+00  0.00000E+00    0.23728E+02  0.19239E+02 -0.42967E+02  0.43731E+01  0.53189E+01 -0.10537E+02      982.00
  0.90510E+00  0.68217E+02    0.48750E+00  0.48750E+00 -0.97500E+00  0.00000E+00  0.00000E+00  0.00000E+00    0.23733E+02  0.19313E+02 -0.43045E+02  0.43326E+01  0.52623E+01 -0.10496E+02      982.00
  0.92877E+00  0.68281E+02    0.50000E+00  0.50000E+00 -0.10000E+01  0.00000E+00  0.00000E+00  0.00000E+00    0.23736E+02  0.19383E+02 -0.43119E+02  0.42930E+01  0.52079E+01 -0.10458E+02      982.00
