          Evm          Svm            E11          E22          E33          E23          E13          E12         SDEV11       SDEV22       SDEV33       SDEV23       SDEV13       SDEV12      TEMP
  0.00000E+00  0.60465E+02    0.00000E+00  0.00000E+00  0.00000E+00  0.00000E+00  0.00000E+00  0.00000E+00    0.26401E+02  0.12164E+02 -0.38566E+02 -0.51143E+01  0.35752E+01 -0.36813E+01      982.00
  0.23918E-01  0.60353E+02    0.12500E-01  0.12500E-01 -0.25000E-01  0.00000E+00  0.00000E+00  0.00000E+00    0.26384E+02  0.12149E+02 -0.38532E+02 -0.50431E+01  0.33699E+01 -0.36271E+01      982.00
  0.47860E-01  0.60273E+02    0.25000E-01  0.25000E-01 -0.50000E-01  0.00000E+00  0.00000E+00  0.00000E+00    0.26382E+02  0.12141E+02 -0.38524E+02 -0.49704E+01  0.31164E+01 -0.35709E+01      982.00
  0.71829E-01  0.60229E+02    0.37500E-01  0.37500E-01 -0.75000E-01  0.00000E+00  0.00000E+00  0.00000E+00    0.26396E+02  0.12146E+02 -0.38542E+02 -0.48945E+01  0.28228E+01 -0.35159E+01      982.00
  0.95826E-01  0.60239E+02    0.50000E-01  0.50000E-01 -0.10000E+00  0.00000E+00  0.00000E+00  0.00000E+00    0.26434E+02  0.12162E+02 -0.38596E+02 -0.48122E+01  0.25048E+01 -0.34648E+01      982.00
  0.11985E+00  0.60322E+02    0.62500E-01  0.62500E-01 -0.12500E+00  0.00000E+00  0.00000E+00  0.00000E+00    0.26505E+02  0.12185E+02 -0.38690E+02 -0.47309E+01  0.21965E+01 -0.34262E+01      982.00
  0.14391E+00  0.60502E+02    0.75000E-01  0.75000E-01 -0.15000E+00  0.00000E+00  0.00000E+00  0.00000E+00    0.26625E+02  0.12212E+02 -0.38837E+02 -0.46615E+01  0.19193E+01 -0.34046E+01      982.00
  0.16798E+00  0.60786E+02    0.87500E-01  0.87500E-01 -0.17500E+00  0.00000E+00  0.00000E+00  0.00000E+00    0.26794E+02  0.12244E+02 -0.39038E+02 -0.46117E+01  0.16905E+01 -0.34051E+01      982.00
  0.19206E+00  0.61163E+02    0.10000E+00  0.10000E+00 -0.20000E+00  0.00000E+00  0.00000E+00  0.00000E+00    0.27005E+02  0.12284E+02 -0.39288E+02 -0.45847E+01  0.15164E+01 -0.34320E+01      982.00
  0.21615E+00  0.61613E+02    0.11250E+00  0.11250E+00 -0.22500E+00  0.00000E+00  0.00000E+00  0.00000E+00    0.27246E+02  0.12333E+02 -0.39580E+02 -0.45726E+01  0.13823E+01 -0.34733E+01      982.00
  0.24024E+00  0.62104E+02    0.12500E+00  0.12500E+00 -0.25000E+00  0.00000E+00  0.00000E+00  0.00000E+00    0.27500E+02  0.12393E+02 -0.39893E+02 -0.45715E+01  0.12845E+01 -0.35275E+01      982.00
  0.26433E+00  0.62599E+02    0.13750E+00  0.13750E+00 -0.27500E+00  0.00000E+00  0.00000E+00  0.00000E+00    0.27749E+02  0.12459E+02 -0.40208E+02 -0.45763E+01  0.12092E+01 -0.35897E+01      982.00
  0.28841E+00  0.63115E+02    0.15000E+00  0.15000E+00 -0.30000E+00  0.00000E+00  0.00000E+00  0.00000E+00    0.28005E+02  0.12527E+02 -0.40532E+02 -0.45901E+01  0.11598E+01 -0.36621E+01      982.00
  0.31250E+00  0.63635E+02    0.16250E+00  0.16250E+00 -0.32500E+00  0.00000E+00  0.00000E+00  0.00000E+00    0.28259E+02  0.12600E+02 -0.40859E+02 -0.46014E+01  0.11258E+01 -0.37364E+01      982.00
  0.33657E+00  0.64143E+02    0.17500E+00  0.17500E+00 -0.35000E+00  0.00000E+00  0.00000E+00  0.00000E+00    0.28502E+02  0.12679E+02 -0.41180E+02 -0.46102E+01  0.11065E+01 -0.38062E+01      982.00
  0.36065E+00  0.64607E+02    0.18750E+00  0.18750E+00 -0.37500E+00  0.00000E+00  0.00000E+00  0.00000E+00    0.28715E+02  0.12764E+02 -0.41479E+02 -0.46077E+01  0.11024E+01 -0.38614E+01      982.00
  0.38472E+00  0.65049E+02    0.20000E+00  0.20000E+00 -0.40000E+00  0.00000E+00  0.00000E+00  0.00000E+00    0.28915E+02  0.12849E+02 -0.41764E+02 -0.46047E+01  0.11052E+01 -0.39107E+01      982.00
  0.40880E+00  0.65451E+02    0.21250E+00  0.21250E+00 -0.42500E+00  0.00000E+00  0.00000E+00  0.00000E+00    0.29095E+02  0.12932E+02 -0.42028E+02 -0.45900E+01  0.11075E+01 -0.39483E+01      982.00
  0.43288E+00  0.65823E+02    0.22500E+00  0.22500E+00 -0.45000E+00  0.00000E+00  0.00000E+00  0.00000E+00    0.29260E+02  0.13013E+02 -0.42273E+02 -0.45706E+01  0.11108E+01 -0.39786E+01      982.00
  0.45696E+00  0.66166E+02    0.23750E+00  0.23750E+00 -0.47500E+00  0.00000E+00  0.00000E+00  0.00000E+00    0.29411E+02  0.13091E+02 -0.42502E+02 -0.45468E+01  0.11147E+01 -0.40013E+01      982.00
  0.48105E+00  0.66483E+02    0.25000E+00  0.25000E+00 -0.50000E+00  0.00000E+00  0.00000E+00  0.00000E+00    0.29549E+02  0.13165E+02 -0.42715E+02 -0.45191E+01  0.11189E+01 -0.40169E+01      982.00
  0.50515E+00  0.66774E+02    0.26250E+00  0.26250E+00 -0.52500E+00  0.00000E+00  0.00000E+00  0.00000E+00    0.29675E+02  0.13237E+02 -0.42912E+02 -0.44884E+01  0.11232E+01 -0.40260E+01      982.00
  0.52925E+00  0.67042E+02    0.27500E+00  0.27500E+00 -0.55000E+00  0.00000E+00  0.00000E+00  0.00000E+00    0.29790E+02  0.13305E+02 -0.43096E+02 -0.44552E+01  0.11276E+01 -0.40290E+01      982.00
  0.55335E+00  0.67271E+02    0.28750E+00  0.28750E+00 -0.57500E+00  0.00000E+00  0.00000E+00  0.00000E+00    0.29882E+02  0.13371E+02 -0.43253E+02 -0.44353E+01  0.11316E+01 -0.40276E+01      982.00
  0.57746E+00  0.67501E+02    0.30000E+00  0.30000E+00 -0.60000E+00  0.00000E+00  0.00000E+00  0.00000E+00    0.29980E+02  0.13433E+02 -0.43413E+02 -0.44015E+01  0.11361E+01 -0.40216E+01      982.00
  0.60158E+00  0.67712E+02    0.31250E+00  0.31250E+00 -0.62500E+00  0.00000E+00  0.00000E+00  0.00000E+00    0.30069E+02  0.13492E+02 -0.43561E+02 -0.43652E+01  0.11406E+01 -0.40109E+01      982.00
  0.62571E+00  0.67907E+02    0.32500E+00  0.32500E+00 -0.65000E+00  0.00000E+00  0.00000E+00  0.00000E+00    0.30151E+02  0.13548E+02 -0.43699E+02 -0.43280E+01  0.11452E+01 -0.39959E+01      982.00
  0.64984E+00  0.68087E+02    0.33750E+00  0.33750E+00 -0.67500E+00  0.00000E+00  0.00000E+00  0.00000E+00    0.30226E+02  0.13601E+02 -0.43827E+02 -0.42905E+01  0.11498E+01 -0.39772E+01      982.00
  0.67398E+00  0.68252E+02    0.35000E+00  0.35000E+00 -0.70000E+00  0.00000E+00  0.00000E+00  0.00000E+00    0.30296E+02  0.13650E+02 -0.43946E+02 -0.42529E+01  0.11546E+01 -0.39551E+01      982.00
  0.69812E+00  0.68404E+02    0.36250E+00  0.36250E+00 -0.72500E+00  0.00000E+00  0.00000E+00  0.00000E+00    0.30360E+02  0.13697E+02 -0.44057E+02 -0.42155E+01  0.11595E+01 -0.39299E+01      982.00
  0.72227E+00  0.68517E+02    0.37500E+00  0.37500E+00 -0.75000E+00  0.00000E+00  0.00000E+00  0.00000E+00    0.30406E+02  0.13734E+02 -0.44140E+02 -0.41837E+01  0.11624E+01 -0.39078E+01      982.00
  0.74643E+00  0.68650E+02    0.38750E+00  0.38750E+00 -0.77500E+00  0.00000E+00  0.00000E+00  0.00000E+00    0.30462E+02  0.13776E+02 -0.44238E+02 -0.41479E+01  0.11675E+01 -0.38781E+01      982.00
  0.77060E+00  0.68773E+02    0.40000E+00  0.40000E+00 -0.80000E+00  0.00000E+00  0.00000E+00  0.00000E+00    0.30513E+02  0.13816E+02 -0.44329E+02 -0.41124E+01  0.11728E+01 -0.38463E+01      982.00
  0.79477E+00  0.68886E+02    0.41250E+00  0.41250E+00 -0.82500E+00  0.00000E+00  0.00000E+00  0.00000E+00    0.30560E+02  0.13853E+02 -0.44414E+02 -0.40778E+01  0.11784E+01 -0.38125E+01      982.00
  0.81895E+00  0.68991E+02    0.42500E+00  0.42500E+00 -0.85000E+00  0.00000E+00  0.00000E+00  0.00000E+00    0.30605E+02  0.13888E+02 -0.44493E+02 -0.40442E+01  0.11841E+01 -0.37770E+01      982.00
  0.84313E+00  0.69088E+02    0.43750E+00  0.43750E+00 -0.87500E+00  0.00000E+00  0.00000E+00  0.00000E+00    0.30646E+02  0.13921E+02 -0.44567E+02 -0.40117E+01  0.11900E+01 -0.37400E+01      982.00
  0.86732E+00  0.69126E+02    0.45000E+00  0.45000E+00 -0.90000E+00  0.00000E+00  0.00000E+00  0.00000E+00    0.30660E+02  0.13945E+02 -0.44605E+02 -0.39648E+01  0.11837E+01 -0.36913E+01      982.00
  0.89152E+00  0.69153E+02    0.46250E+00  0.46250E+00 -0.92500E+00  0.00000E+00  0.00000E+00  0.00000E+00    0.30671E+02  0.13963E+02 -0.44635E+02 -0.39199E+01  0.11814E+01 -0.36438E+01      982.00
  0.91572E+00  0.69177E+02    0.47500E+00  0.47500E+00 -0.95000E+00  0.00000E+00  0.00000E+00  0.00000E+00    0.30682E+02  0.13980E+02 -0.44662E+02 -0.38773E+01  0.11806E+01 -0.35961E+01      982.00
  0.93993E+00  0.69211E+02    0.48750E+00  0.48750E+00 -0.97500E+00  0.00000E+00  0.00000E+00  0.00000E+00    0.30693E+02  0.14006E+02 -0.44699E+02 -0.38366E+01  0.11819E+01 -0.35385E+01      982.00
  0.96415E+00  0.69224E+02    0.50000E+00  0.50000E+00 -0.10000E+01  0.00000E+00  0.00000E+00  0.00000E+00    0.30700E+02  0.14016E+02 -0.44716E+02 -0.38017E+01  0.11818E+01 -0.35013E+01      982.00
