          Evm          Svm            E11          E22          E33          E23          E13          E12         SDEV11       SDEV22       SDEV33       SDEV23       SDEV13       SDEV12      TEMP
  0.00000E+00  0.55908E+02    0.00000E+00  0.00000E+00  0.00000E+00  0.00000E+00  0.00000E+00  0.00000E+00    0.19496E+02  0.14054E+02 -0.33550E+02  0.48556E+01 -0.74965E+01  0.10514E+02      982.00
  0.22503E-01  0.55679E+02    0.12500E-01  0.12500E-01 -0.25000E-01  0.00000E+00  0.00000E+00  0.00000E+00    0.18953E+02  0.14426E+02 -0.33379E+02  0.48454E+01 -0.72009E+01  0.10830E+02      982.00
  0.44984E-01  0.55643E+02    0.25000E-01  0.25000E-01 -0.50000E-01  0.00000E+00  0.00000E+00  0.00000E+00    0.18351E+02  0.14957E+02 -0.33308E+02  0.48852E+01 -0.68253E+01  0.11254E+02      982.00
  0.67432E-01  0.55796E+02    0.37500E-01  0.37500E-01 -0.75000E-01  0.00000E+00  0.00000E+00  0.00000E+00    0.17689E+02  0.15637E+02 -0.33326E+02  0.49546E+01 -0.63307E+01  0.11794E+02      982.00
  0.89830E-01  0.56072E+02    0.50000E-01  0.50000E-01 -0.10000E+00  0.00000E+00  0.00000E+00  0.00000E+00    0.17000E+02  0.16395E+02 -0.33395E+02  0.50164E+01 -0.57352E+01  0.12387E+02      982.00
  0.11216E+00  0.56381E+02    0.62500E-01  0.62500E-01 -0.12500E+00  0.00000E+00  0.00000E+00  0.00000E+00    0.16329E+02  0.17145E+02 -0.33474E+02  0.50295E+01 -0.50909E+01  0.12955E+02      982.00
  0.13443E+00  0.56680E+02    0.75000E-01  0.75000E-01 -0.15000E+00  0.00000E+00  0.00000E+00  0.00000E+00    0.15709E+02  0.17840E+02 -0.33549E+02  0.49749E+01 -0.44411E+01  0.13458E+02      982.00
  0.15662E+00  0.56977E+02    0.87500E-01  0.87500E-01 -0.17500E+00  0.00000E+00  0.00000E+00  0.00000E+00    0.15160E+02  0.18468E+02 -0.33629E+02  0.48610E+01 -0.38124E+01  0.13895E+02      982.00
  0.17876E+00  0.57282E+02    0.10000E+00  0.10000E+00 -0.20000E+00  0.00000E+00  0.00000E+00  0.00000E+00    0.14684E+02  0.19038E+02 -0.33722E+02  0.47034E+01 -0.32110E+01  0.14272E+02      982.00
  0.20083E+00  0.57592E+02    0.11250E+00  0.11250E+00 -0.22500E+00  0.00000E+00  0.00000E+00  0.00000E+00    0.14270E+02  0.19560E+02 -0.33830E+02  0.45108E+01 -0.26307E+01  0.14594E+02      982.00
  0.22286E+00  0.57897E+02    0.12500E+00  0.12500E+00 -0.25000E+00  0.00000E+00  0.00000E+00  0.00000E+00    0.13910E+02  0.20041E+02 -0.33951E+02  0.42881E+01 -0.20674E+01  0.14859E+02      982.00
  0.24485E+00  0.58196E+02    0.13750E+00  0.13750E+00 -0.27500E+00  0.00000E+00  0.00000E+00  0.00000E+00    0.13600E+02  0.20483E+02 -0.34083E+02  0.40517E+01 -0.15335E+01  0.15070E+02      982.00
  0.26681E+00  0.58480E+02    0.15000E+00  0.15000E+00 -0.30000E+00  0.00000E+00  0.00000E+00  0.00000E+00    0.13331E+02  0.20891E+02 -0.34222E+02  0.38020E+01 -0.10231E+01  0.15226E+02      982.00
  0.28876E+00  0.58750E+02    0.16250E+00  0.16250E+00 -0.32500E+00  0.00000E+00  0.00000E+00  0.00000E+00    0.13101E+02  0.21266E+02 -0.34367E+02  0.35516E+01 -0.54515E+00  0.15334E+02      982.00
  0.31069E+00  0.59012E+02    0.17500E+00  0.17500E+00 -0.35000E+00  0.00000E+00  0.00000E+00  0.00000E+00    0.12910E+02  0.21609E+02 -0.34519E+02  0.33145E+01 -0.11000E+00  0.15403E+02      982.00
  0.33263E+00  0.59259E+02    0.18750E+00  0.18750E+00 -0.37500E+00  0.00000E+00  0.00000E+00  0.00000E+00    0.12750E+02  0.21923E+02 -0.34673E+02  0.30856E+01  0.29195E+00  0.15434E+02      982.00
  0.35457E+00  0.59496E+02    0.20000E+00  0.20000E+00 -0.40000E+00  0.00000E+00  0.00000E+00  0.00000E+00    0.12622E+02  0.22209E+02 -0.34831E+02  0.28736E+01  0.65451E+00  0.15439E+02      982.00
  0.37653E+00  0.59726E+02    0.21250E+00  0.21250E+00 -0.42500E+00  0.00000E+00  0.00000E+00  0.00000E+00    0.12524E+02  0.22468E+02 -0.34992E+02  0.26803E+01  0.97823E+00  0.15422E+02      982.00
  0.39850E+00  0.59948E+02    0.22500E+00  0.22500E+00 -0.45000E+00  0.00000E+00  0.00000E+00  0.00000E+00    0.12455E+02  0.22699E+02 -0.35154E+02  0.25156E+01  0.12550E+01  0.15393E+02      982.00
  0.42049E+00  0.60160E+02    0.23750E+00  0.23750E+00 -0.47500E+00  0.00000E+00  0.00000E+00  0.00000E+00    0.12408E+02  0.22907E+02 -0.35315E+02  0.23620E+01  0.15046E+01  0.15350E+02      982.00
  0.44250E+00  0.60361E+02    0.25000E+00  0.25000E+00 -0.50000E+00  0.00000E+00  0.00000E+00  0.00000E+00    0.12385E+02  0.23089E+02 -0.35474E+02  0.22302E+01  0.17159E+01  0.15300E+02      982.00
  0.46454E+00  0.60555E+02    0.26250E+00  0.26250E+00 -0.52500E+00  0.00000E+00  0.00000E+00  0.00000E+00    0.12383E+02  0.23248E+02 -0.35631E+02  0.21209E+01  0.18934E+01  0.15250E+02      982.00
  0.48660E+00  0.60738E+02    0.27500E+00  0.27500E+00 -0.55000E+00  0.00000E+00  0.00000E+00  0.00000E+00    0.12395E+02  0.23389E+02 -0.35784E+02  0.20167E+01  0.20519E+01  0.15193E+02      982.00
  0.50870E+00  0.60909E+02    0.28750E+00  0.28750E+00 -0.57500E+00  0.00000E+00  0.00000E+00  0.00000E+00    0.12426E+02  0.23506E+02 -0.35931E+02  0.19301E+01  0.21782E+01  0.15139E+02      982.00
  0.53082E+00  0.61078E+02    0.30000E+00  0.30000E+00 -0.60000E+00  0.00000E+00  0.00000E+00  0.00000E+00    0.12469E+02  0.23606E+02 -0.36075E+02  0.18615E+01  0.22795E+01  0.15092E+02      982.00
  0.55297E+00  0.61238E+02    0.31250E+00  0.31250E+00 -0.62500E+00  0.00000E+00  0.00000E+00  0.00000E+00    0.12524E+02  0.23690E+02 -0.36213E+02  0.18026E+01  0.23610E+01  0.15050E+02      982.00
  0.57514E+00  0.61390E+02    0.32500E+00  0.32500E+00 -0.65000E+00  0.00000E+00  0.00000E+00  0.00000E+00    0.12587E+02  0.23759E+02 -0.36346E+02  0.17517E+01  0.24245E+01  0.15012E+02      982.00
  0.59735E+00  0.61527E+02    0.33750E+00  0.33750E+00 -0.67500E+00  0.00000E+00  0.00000E+00  0.00000E+00    0.12660E+02  0.23809E+02 -0.36469E+02  0.16990E+01  0.24757E+01  0.14976E+02      982.00
  0.61957E+00  0.61665E+02    0.35000E+00  0.35000E+00 -0.70000E+00  0.00000E+00  0.00000E+00  0.00000E+00    0.12739E+02  0.23850E+02 -0.36589E+02  0.16605E+01  0.25058E+01  0.14953E+02      982.00
  0.64182E+00  0.61797E+02    0.36250E+00  0.36250E+00 -0.72500E+00  0.00000E+00  0.00000E+00  0.00000E+00    0.12822E+02  0.23880E+02 -0.36702E+02  0.16262E+01  0.25227E+01  0.14937E+02      982.00
  0.66409E+00  0.61923E+02    0.37500E+00  0.37500E+00 -0.75000E+00  0.00000E+00  0.00000E+00  0.00000E+00    0.12908E+02  0.23900E+02 -0.36808E+02  0.15937E+01  0.25281E+01  0.14930E+02      982.00
  0.68639E+00  0.62034E+02    0.38750E+00  0.38750E+00 -0.77500E+00  0.00000E+00  0.00000E+00  0.00000E+00    0.12991E+02  0.23910E+02 -0.36902E+02  0.15647E+01  0.25215E+01  0.14928E+02      982.00
  0.70869E+00  0.62168E+02    0.40000E+00  0.40000E+00 -0.80000E+00  0.00000E+00  0.00000E+00  0.00000E+00    0.13079E+02  0.23926E+02 -0.37005E+02  0.15349E+01  0.25122E+01  0.14940E+02      982.00
  0.73101E+00  0.62279E+02    0.41250E+00  0.41250E+00 -0.82500E+00  0.00000E+00  0.00000E+00  0.00000E+00    0.13172E+02  0.23919E+02 -0.37091E+02  0.14946E+01  0.24955E+01  0.14959E+02      982.00
  0.75335E+00  0.62385E+02    0.42500E+00  0.42500E+00 -0.85000E+00  0.00000E+00  0.00000E+00  0.00000E+00    0.13268E+02  0.23902E+02 -0.37171E+02  0.14458E+01  0.24751E+01  0.14986E+02      982.00
  0.77569E+00  0.62503E+02    0.43750E+00  0.43750E+00 -0.87500E+00  0.00000E+00  0.00000E+00  0.00000E+00    0.13365E+02  0.23886E+02 -0.37251E+02  0.13920E+01  0.24568E+01  0.15028E+02      982.00
  0.79804E+00  0.62607E+02    0.45000E+00  0.45000E+00 -0.90000E+00  0.00000E+00  0.00000E+00  0.00000E+00    0.13465E+02  0.23854E+02 -0.37319E+02  0.13263E+01  0.24392E+01  0.15077E+02      982.00
  0.82039E+00  0.62701E+02    0.46250E+00  0.46250E+00 -0.92500E+00  0.00000E+00  0.00000E+00  0.00000E+00    0.13575E+02  0.23808E+02 -0.37382E+02  0.12395E+01  0.24212E+01  0.15126E+02      982.00
  0.84275E+00  0.62786E+02    0.47500E+00  0.47500E+00 -0.95000E+00  0.00000E+00  0.00000E+00  0.00000E+00    0.13686E+02  0.23751E+02 -0.37437E+02  0.11436E+01  0.24085E+01  0.15180E+02      982.00
  0.86511E+00  0.62870E+02    0.48750E+00  0.48750E+00 -0.97500E+00  0.00000E+00  0.00000E+00  0.00000E+00    0.13801E+02  0.23689E+02 -0.37490E+02  0.10362E+01  0.23967E+01  0.15236E+02      982.00
  0.88747E+00  0.62954E+02    0.50000E+00  0.50000E+00 -0.10000E+01  0.00000E+00  0.00000E+00  0.00000E+00    0.13930E+02  0.23614E+02 -0.37544E+02  0.90249E+00  0.23898E+01  0.15296E+02      982.00
