          Evm          Svm            E11          E22          E33          E23          E13          E12         SDEV11       SDEV22       SDEV33       SDEV23       SDEV13       SDEV12      TEMP
  0.00000E+00  0.62848E+02    0.00000E+00  0.00000E+00  0.00000E+00  0.00000E+00  0.00000E+00  0.00000E+00    0.19060E+02  0.19924E+02 -0.38984E+02 -0.23768E+01  0.25589E+01  0.12824E+02      982.00
  0.23261E-01  0.62830E+02    0.12500E-01  0.12500E-01 -0.25000E-01  0.00000E+00  0.00000E+00  0.00000E+00    0.19055E+02  0.20004E+02 -0.39059E+02 -0.25789E+01  0.25862E+01  0.12575E+02      982.00
  0.46573E-01  0.62848E+02    0.25000E-01  0.25000E-01 -0.50000E-01  0.00000E+00  0.00000E+00  0.00000E+00    0.19042E+02  0.20100E+02 -0.39142E+02 -0.26991E+01  0.25696E+01  0.12384E+02      982.00
  0.69928E-01  0.62907E+02    0.37500E-01  0.37500E-01 -0.75000E-01  0.00000E+00  0.00000E+00  0.00000E+00    0.19036E+02  0.20204E+02 -0.39240E+02 -0.27742E+01  0.25343E+01  0.12240E+02      982.00
  0.93320E-01  0.62997E+02    0.50000E-01  0.50000E-01 -0.10000E+00  0.00000E+00  0.00000E+00  0.00000E+00    0.19031E+02  0.20316E+02 -0.39347E+02 -0.28261E+01  0.24933E+01  0.12130E+02      982.00
  0.11674E+00  0.63135E+02    0.62500E-01  0.62500E-01 -0.12500E+00  0.00000E+00  0.00000E+00  0.00000E+00    0.19043E+02  0.20430E+02 -0.39473E+02 -0.28538E+01  0.24498E+01  0.12061E+02      982.00
  0.14019E+00  0.63301E+02    0.75000E-01  0.75000E-01 -0.15000E+00  0.00000E+00  0.00000E+00  0.00000E+00    0.19059E+02  0.20548E+02 -0.39607E+02 -0.28701E+01  0.24071E+01  0.12022E+02      982.00
  0.16365E+00  0.63508E+02    0.87500E-01  0.87500E-01 -0.17500E+00  0.00000E+00  0.00000E+00  0.00000E+00    0.19096E+02  0.20664E+02 -0.39760E+02 -0.28772E+01  0.23700E+01  0.12011E+02      982.00
  0.18713E+00  0.63740E+02    0.10000E+00  0.10000E+00 -0.20000E+00  0.00000E+00  0.00000E+00  0.00000E+00    0.19145E+02  0.20777E+02 -0.39922E+02 -0.28812E+01  0.23388E+01  0.12020E+02      982.00
  0.21062E+00  0.64006E+02    0.11250E+00  0.11250E+00 -0.22500E+00  0.00000E+00  0.00000E+00  0.00000E+00    0.19202E+02  0.20898E+02 -0.40100E+02 -0.28833E+01  0.23104E+01  0.12052E+02      982.00
  0.23411E+00  0.64277E+02    0.12500E+00  0.12500E+00 -0.25000E+00  0.00000E+00  0.00000E+00  0.00000E+00    0.19269E+02  0.21009E+02 -0.40279E+02 -0.28871E+01  0.22918E+01  0.12086E+02      982.00
  0.25761E+00  0.64558E+02    0.13750E+00  0.13750E+00 -0.27500E+00  0.00000E+00  0.00000E+00  0.00000E+00    0.19344E+02  0.21118E+02 -0.40462E+02 -0.28930E+01  0.22795E+01  0.12126E+02      982.00
  0.28111E+00  0.64845E+02    0.15000E+00  0.15000E+00 -0.30000E+00  0.00000E+00  0.00000E+00  0.00000E+00    0.19424E+02  0.21223E+02 -0.40647E+02 -0.29006E+01  0.22722E+01  0.12170E+02      982.00
  0.30462E+00  0.65170E+02    0.16250E+00  0.16250E+00 -0.32500E+00  0.00000E+00  0.00000E+00  0.00000E+00    0.19515E+02  0.21338E+02 -0.40853E+02 -0.29096E+01  0.22671E+01  0.12228E+02      982.00
  0.32812E+00  0.65453E+02    0.17500E+00  0.17500E+00 -0.35000E+00  0.00000E+00  0.00000E+00  0.00000E+00    0.19600E+02  0.21436E+02 -0.41036E+02 -0.29191E+01  0.22671E+01  0.12271E+02      982.00
  0.35164E+00  0.65731E+02    0.18750E+00  0.18750E+00 -0.37500E+00  0.00000E+00  0.00000E+00  0.00000E+00    0.19686E+02  0.21530E+02 -0.41216E+02 -0.29294E+01  0.22702E+01  0.12310E+02      982.00
  0.37515E+00  0.65999E+02    0.20000E+00  0.20000E+00 -0.40000E+00  0.00000E+00  0.00000E+00  0.00000E+00    0.19771E+02  0.21620E+02 -0.41390E+02 -0.29392E+01  0.22745E+01  0.12345E+02      982.00
  0.39867E+00  0.66292E+02    0.21250E+00  0.21250E+00 -0.42500E+00  0.00000E+00  0.00000E+00  0.00000E+00    0.19865E+02  0.21715E+02 -0.41580E+02 -0.29509E+01  0.22809E+01  0.12387E+02      982.00
  0.42219E+00  0.66535E+02    0.22500E+00  0.22500E+00 -0.45000E+00  0.00000E+00  0.00000E+00  0.00000E+00    0.19946E+02  0.21794E+02 -0.41740E+02 -0.29576E+01  0.22851E+01  0.12415E+02      982.00
  0.44571E+00  0.66764E+02    0.23750E+00  0.23750E+00 -0.47500E+00  0.00000E+00  0.00000E+00  0.00000E+00    0.20024E+02  0.21869E+02 -0.41893E+02 -0.29626E+01  0.22892E+01  0.12438E+02      982.00
  0.46924E+00  0.66981E+02    0.25000E+00  0.25000E+00 -0.50000E+00  0.00000E+00  0.00000E+00  0.00000E+00    0.20099E+02  0.21938E+02 -0.42038E+02 -0.29654E+01  0.22923E+01  0.12459E+02      982.00
  0.49278E+00  0.67184E+02    0.26250E+00  0.26250E+00 -0.52500E+00  0.00000E+00  0.00000E+00  0.00000E+00    0.20171E+02  0.22004E+02 -0.42175E+02 -0.29660E+01  0.22942E+01  0.12476E+02      982.00
  0.51632E+00  0.67375E+02    0.27500E+00  0.27500E+00 -0.55000E+00  0.00000E+00  0.00000E+00  0.00000E+00    0.20238E+02  0.22065E+02 -0.42304E+02 -0.29643E+01  0.22948E+01  0.12491E+02      982.00
  0.53987E+00  0.67562E+02    0.28750E+00  0.28750E+00 -0.57500E+00  0.00000E+00  0.00000E+00  0.00000E+00    0.20306E+02  0.22125E+02 -0.42430E+02 -0.29630E+01  0.22961E+01  0.12506E+02      982.00
  0.56342E+00  0.67725E+02    0.30000E+00  0.30000E+00 -0.60000E+00  0.00000E+00  0.00000E+00  0.00000E+00    0.20366E+02  0.22178E+02 -0.42543E+02 -0.29567E+01  0.22935E+01  0.12515E+02      982.00
  0.58697E+00  0.67879E+02    0.31250E+00  0.31250E+00 -0.62500E+00  0.00000E+00  0.00000E+00  0.00000E+00    0.20422E+02  0.22228E+02 -0.42650E+02 -0.29491E+01  0.22903E+01  0.12523E+02      982.00
  0.61053E+00  0.68060E+02    0.32500E+00  0.32500E+00 -0.65000E+00  0.00000E+00  0.00000E+00  0.00000E+00    0.20491E+02  0.22286E+02 -0.42777E+02 -0.29357E+01  0.22839E+01  0.12530E+02      982.00
  0.63410E+00  0.68190E+02    0.33750E+00  0.33750E+00 -0.67500E+00  0.00000E+00  0.00000E+00  0.00000E+00    0.20541E+02  0.22328E+02 -0.42869E+02 -0.29235E+01  0.22779E+01  0.12535E+02      982.00
  0.65768E+00  0.68310E+02    0.35000E+00  0.35000E+00 -0.70000E+00  0.00000E+00  0.00000E+00  0.00000E+00    0.20586E+02  0.22367E+02 -0.42954E+02 -0.29105E+01  0.22711E+01  0.12539E+02      982.00
  0.68126E+00  0.68420E+02    0.36250E+00  0.36250E+00 -0.72500E+00  0.00000E+00  0.00000E+00  0.00000E+00    0.20629E+02  0.22404E+02 -0.43033E+02 -0.28970E+01  0.22639E+01  0.12541E+02      982.00
  0.70485E+00  0.68501E+02    0.37500E+00  0.37500E+00 -0.75000E+00  0.00000E+00  0.00000E+00  0.00000E+00    0.20658E+02  0.22431E+02 -0.43089E+02 -0.28918E+01  0.22614E+01  0.12543E+02      982.00
  0.72843E+00  0.68618E+02    0.38750E+00  0.38750E+00 -0.77500E+00  0.00000E+00  0.00000E+00  0.00000E+00    0.20704E+02  0.22472E+02 -0.43176E+02 -0.28714E+01  0.22499E+01  0.12542E+02      982.00
  0.75203E+00  0.68692E+02    0.40000E+00  0.40000E+00 -0.80000E+00  0.00000E+00  0.00000E+00  0.00000E+00    0.20732E+02  0.22496E+02 -0.43228E+02 -0.28647E+01  0.22468E+01  0.12543E+02      982.00
  0.77563E+00  0.68777E+02    0.41250E+00  0.41250E+00 -0.82500E+00  0.00000E+00  0.00000E+00  0.00000E+00    0.20764E+02  0.22526E+02 -0.43290E+02 -0.28524E+01  0.22400E+01  0.12542E+02      982.00
  0.79923E+00  0.68857E+02    0.42500E+00  0.42500E+00 -0.85000E+00  0.00000E+00  0.00000E+00  0.00000E+00    0.20795E+02  0.22554E+02 -0.43349E+02 -0.28386E+01  0.22325E+01  0.12540E+02      982.00
  0.82284E+00  0.68931E+02    0.43750E+00  0.43750E+00 -0.87500E+00  0.00000E+00  0.00000E+00  0.00000E+00    0.20823E+02  0.22580E+02 -0.43404E+02 -0.28245E+01  0.22249E+01  0.12538E+02      982.00
  0.84645E+00  0.69000E+02    0.45000E+00  0.45000E+00 -0.90000E+00  0.00000E+00  0.00000E+00  0.00000E+00    0.20850E+02  0.22605E+02 -0.43455E+02 -0.28104E+01  0.22173E+01  0.12536E+02      982.00
  0.87007E+00  0.69064E+02    0.46250E+00  0.46250E+00 -0.92500E+00  0.00000E+00  0.00000E+00  0.00000E+00    0.20874E+02  0.22629E+02 -0.43503E+02 -0.27964E+01  0.22099E+01  0.12534E+02      982.00
  0.89369E+00  0.69124E+02    0.47500E+00  0.47500E+00 -0.95000E+00  0.00000E+00  0.00000E+00  0.00000E+00    0.20896E+02  0.22652E+02 -0.43548E+02 -0.27826E+01  0.22027E+01  0.12532E+02      982.00
  0.91732E+00  0.69169E+02    0.48750E+00  0.48750E+00 -0.97500E+00  0.00000E+00  0.00000E+00  0.00000E+00    0.20911E+02  0.22667E+02 -0.43579E+02 -0.27748E+01  0.21999E+01  0.12536E+02      982.00
  0.94094E+00  0.69224E+02    0.50000E+00  0.50000E+00 -0.10000E+01  0.00000E+00  0.00000E+00  0.00000E+00    0.20932E+02  0.22689E+02 -0.43620E+02 -0.27621E+01  0.21931E+01  0.12532E+02      982.00
