          Evm          Svm            E11          E22          E33          E23          E13          E12         SDEV11       SDEV22       SDEV33       SDEV23       SDEV13       SDEV12      TEMP
  0.00000E+00  0.57499E+02    0.00000E+00  0.00000E+00  0.00000E+00  0.00000E+00  0.00000E+00  0.00000E+00    0.15871E+02  0.16864E+02 -0.32735E+02 -0.22132E+01  0.84895E+00  0.17103E+02      982.00
  0.21349E-01  0.57442E+02    0.12500E-01  0.12500E-01 -0.25000E-01  0.00000E+00  0.00000E+00  0.00000E+00    0.15888E+02  0.16886E+02 -0.32774E+02 -0.24329E+01  0.11915E+01  0.16932E+02      982.00
  0.42745E-01  0.57497E+02    0.25000E-01  0.25000E-01 -0.50000E-01  0.00000E+00  0.00000E+00  0.00000E+00    0.15941E+02  0.16918E+02 -0.32859E+02 -0.25908E+01  0.14479E+01  0.16826E+02      982.00
  0.64176E-01  0.57633E+02    0.37500E-01  0.37500E-01 -0.75000E-01  0.00000E+00  0.00000E+00  0.00000E+00    0.16007E+02  0.16971E+02 -0.32979E+02 -0.26913E+01  0.16181E+01  0.16775E+02      982.00
  0.85634E-01  0.57843E+02    0.50000E-01  0.50000E-01 -0.10000E+00  0.00000E+00  0.00000E+00  0.00000E+00    0.16087E+02  0.17043E+02 -0.33130E+02 -0.27571E+01  0.17432E+01  0.16769E+02      982.00
  0.10711E+00  0.58114E+02    0.62500E-01  0.62500E-01 -0.12500E+00  0.00000E+00  0.00000E+00  0.00000E+00    0.16175E+02  0.17130E+02 -0.33305E+02 -0.27939E+01  0.18273E+01  0.16807E+02      982.00
  0.12860E+00  0.58453E+02    0.75000E-01  0.75000E-01 -0.15000E+00  0.00000E+00  0.00000E+00  0.00000E+00    0.16271E+02  0.17232E+02 -0.33503E+02 -0.28124E+01  0.18776E+01  0.16894E+02      982.00
  0.15010E+00  0.58820E+02    0.87500E-01  0.87500E-01 -0.17500E+00  0.00000E+00  0.00000E+00  0.00000E+00    0.16372E+02  0.17341E+02 -0.33714E+02 -0.28149E+01  0.19112E+01  0.17000E+02      982.00
  0.17159E+00  0.59229E+02    0.10000E+00  0.10000E+00 -0.20000E+00  0.00000E+00  0.00000E+00  0.00000E+00    0.16480E+02  0.17459E+02 -0.33939E+02 -0.28136E+01  0.19306E+01  0.17134E+02      982.00
  0.19308E+00  0.59650E+02    0.11250E+00  0.11250E+00 -0.22500E+00  0.00000E+00  0.00000E+00  0.00000E+00    0.16591E+02  0.17579E+02 -0.34170E+02 -0.28083E+01  0.19428E+01  0.17276E+02      982.00
  0.21456E+00  0.60074E+02    0.12500E+00  0.12500E+00 -0.25000E+00  0.00000E+00  0.00000E+00  0.00000E+00    0.16702E+02  0.17698E+02 -0.34400E+02 -0.27934E+01  0.19486E+01  0.17424E+02      982.00
  0.23603E+00  0.60493E+02    0.13750E+00  0.13750E+00 -0.27500E+00  0.00000E+00  0.00000E+00  0.00000E+00    0.16816E+02  0.17816E+02 -0.34633E+02 -0.27831E+01  0.19540E+01  0.17562E+02      982.00
  0.25750E+00  0.60895E+02    0.15000E+00  0.15000E+00 -0.30000E+00  0.00000E+00  0.00000E+00  0.00000E+00    0.16931E+02  0.17929E+02 -0.34860E+02 -0.27720E+01  0.19577E+01  0.17689E+02      982.00
  0.27897E+00  0.61303E+02    0.16250E+00  0.16250E+00 -0.32500E+00  0.00000E+00  0.00000E+00  0.00000E+00    0.17048E+02  0.18040E+02 -0.35088E+02 -0.27532E+01  0.19596E+01  0.17823E+02      982.00
  0.30043E+00  0.61661E+02    0.17500E+00  0.17500E+00 -0.35000E+00  0.00000E+00  0.00000E+00  0.00000E+00    0.17160E+02  0.18139E+02 -0.35299E+02 -0.27383E+01  0.19609E+01  0.17924E+02      982.00
  0.32190E+00  0.61994E+02    0.18750E+00  0.18750E+00 -0.37500E+00  0.00000E+00  0.00000E+00  0.00000E+00    0.17269E+02  0.18232E+02 -0.35501E+02 -0.27237E+01  0.19616E+01  0.18011E+02      982.00
  0.34338E+00  0.62303E+02    0.20000E+00  0.20000E+00 -0.40000E+00  0.00000E+00  0.00000E+00  0.00000E+00    0.17375E+02  0.18317E+02 -0.35692E+02 -0.27082E+01  0.19613E+01  0.18085E+02      982.00
  0.36486E+00  0.62589E+02    0.21250E+00  0.21250E+00 -0.42500E+00  0.00000E+00  0.00000E+00  0.00000E+00    0.17478E+02  0.18395E+02 -0.35873E+02 -0.26917E+01  0.19599E+01  0.18148E+02      982.00
  0.38635E+00  0.62852E+02    0.22500E+00  0.22500E+00 -0.45000E+00  0.00000E+00  0.00000E+00  0.00000E+00    0.17577E+02  0.18466E+02 -0.36043E+02 -0.26741E+01  0.19574E+01  0.18201E+02      982.00
  0.40786E+00  0.63098E+02    0.23750E+00  0.23750E+00 -0.47500E+00  0.00000E+00  0.00000E+00  0.00000E+00    0.17673E+02  0.18532E+02 -0.36204E+02 -0.26559E+01  0.19536E+01  0.18248E+02      982.00
  0.42937E+00  0.63319E+02    0.25000E+00  0.25000E+00 -0.50000E+00  0.00000E+00  0.00000E+00  0.00000E+00    0.17765E+02  0.18589E+02 -0.36354E+02 -0.26367E+01  0.19488E+01  0.18283E+02      982.00
  0.45090E+00  0.63521E+02    0.26250E+00  0.26250E+00 -0.52500E+00  0.00000E+00  0.00000E+00  0.00000E+00    0.17854E+02  0.18641E+02 -0.36495E+02 -0.26170E+01  0.19433E+01  0.18311E+02      982.00
  0.47245E+00  0.63707E+02    0.27500E+00  0.27500E+00 -0.55000E+00  0.00000E+00  0.00000E+00  0.00000E+00    0.17939E+02  0.18687E+02 -0.36626E+02 -0.25968E+01  0.19368E+01  0.18333E+02      982.00
  0.49401E+00  0.63878E+02    0.28750E+00  0.28750E+00 -0.57500E+00  0.00000E+00  0.00000E+00  0.00000E+00    0.18022E+02  0.18728E+02 -0.36749E+02 -0.25763E+01  0.19297E+01  0.18350E+02      982.00
  0.51558E+00  0.64034E+02    0.30000E+00  0.30000E+00 -0.60000E+00  0.00000E+00  0.00000E+00  0.00000E+00    0.18100E+02  0.18764E+02 -0.36864E+02 -0.25557E+01  0.19219E+01  0.18363E+02      982.00
  0.53717E+00  0.64177E+02    0.31250E+00  0.31250E+00 -0.62500E+00  0.00000E+00  0.00000E+00  0.00000E+00    0.18176E+02  0.18796E+02 -0.36972E+02 -0.25351E+01  0.19135E+01  0.18373E+02      982.00
  0.55877E+00  0.64309E+02    0.32500E+00  0.32500E+00 -0.65000E+00  0.00000E+00  0.00000E+00  0.00000E+00    0.18249E+02  0.18823E+02 -0.37072E+02 -0.25147E+01  0.19048E+01  0.18379E+02      982.00
  0.58039E+00  0.64417E+02    0.33750E+00  0.33750E+00 -0.67500E+00  0.00000E+00  0.00000E+00  0.00000E+00    0.18311E+02  0.18843E+02 -0.37154E+02 -0.24991E+01  0.18986E+01  0.18383E+02      982.00
  0.60202E+00  0.64531E+02    0.35000E+00  0.35000E+00 -0.70000E+00  0.00000E+00  0.00000E+00  0.00000E+00    0.18378E+02  0.18865E+02 -0.37243E+02 -0.24798E+01  0.18895E+01  0.18386E+02      982.00
  0.62366E+00  0.64636E+02    0.36250E+00  0.36250E+00 -0.72500E+00  0.00000E+00  0.00000E+00  0.00000E+00    0.18443E+02  0.18883E+02 -0.37326E+02 -0.24604E+01  0.18800E+01  0.18386E+02      982.00
  0.64532E+00  0.64732E+02    0.37500E+00  0.37500E+00 -0.75000E+00  0.00000E+00  0.00000E+00  0.00000E+00    0.18505E+02  0.18898E+02 -0.37403E+02 -0.24415E+01  0.18705E+01  0.18385E+02      982.00
  0.66699E+00  0.64821E+02    0.38750E+00  0.38750E+00 -0.77500E+00  0.00000E+00  0.00000E+00  0.00000E+00    0.18565E+02  0.18910E+02 -0.37475E+02 -0.24231E+01  0.18611E+01  0.18384E+02      982.00
  0.68867E+00  0.64904E+02    0.40000E+00  0.40000E+00 -0.80000E+00  0.00000E+00  0.00000E+00  0.00000E+00    0.18623E+02  0.18919E+02 -0.37542E+02 -0.24055E+01  0.18517E+01  0.18381E+02      982.00
  0.71036E+00  0.64980E+02    0.41250E+00  0.41250E+00 -0.82500E+00  0.00000E+00  0.00000E+00  0.00000E+00    0.18678E+02  0.18927E+02 -0.37605E+02 -0.23885E+01  0.18425E+01  0.18379E+02      982.00
  0.73206E+00  0.65052E+02    0.42500E+00  0.42500E+00 -0.85000E+00  0.00000E+00  0.00000E+00  0.00000E+00    0.18732E+02  0.18932E+02 -0.37664E+02 -0.23722E+01  0.18335E+01  0.18375E+02      982.00
  0.75377E+00  0.65118E+02    0.43750E+00  0.43750E+00 -0.87500E+00  0.00000E+00  0.00000E+00  0.00000E+00    0.18784E+02  0.18935E+02 -0.37719E+02 -0.23566E+01  0.18247E+01  0.18372E+02      982.00
  0.77549E+00  0.65179E+02    0.45000E+00  0.45000E+00 -0.90000E+00  0.00000E+00  0.00000E+00  0.00000E+00    0.18834E+02  0.18937E+02 -0.37770E+02 -0.23419E+01  0.18161E+01  0.18368E+02      982.00
  0.79722E+00  0.65237E+02    0.46250E+00  0.46250E+00 -0.92500E+00  0.00000E+00  0.00000E+00  0.00000E+00    0.18882E+02  0.18937E+02 -0.37819E+02 -0.23278E+01  0.18078E+01  0.18364E+02      982.00
  0.81896E+00  0.65291E+02    0.47500E+00  0.47500E+00 -0.95000E+00  0.00000E+00  0.00000E+00  0.00000E+00    0.18928E+02  0.18935E+02 -0.37864E+02 -0.23146E+01  0.17999E+01  0.18361E+02      982.00
  0.84071E+00  0.65341E+02    0.48750E+00  0.48750E+00 -0.97500E+00  0.00000E+00  0.00000E+00  0.00000E+00    0.18974E+02  0.18932E+02 -0.37906E+02 -0.23021E+01  0.17922E+01  0.18357E+02      982.00
  0.86246E+00  0.65346E+02    0.50000E+00  0.50000E+00 -0.10000E+01  0.00000E+00  0.00000E+00  0.00000E+00    0.18998E+02  0.18919E+02 -0.37917E+02 -0.22819E+01  0.17813E+01  0.18349E+02      982.00
