          Evm          Svm            E11          E22          E33          E23          E13          E12         SDEV11       SDEV22       SDEV33       SDEV23       SDEV13       SDEV12      TEMP
  0.00000E+00  0.66076E+02    0.00000E+00  0.00000E+00  0.00000E+00  0.00000E+00  0.00000E+00  0.00000E+00    0.21120E+02  0.21920E+02 -0.43040E+02 -0.30393E+01 -0.24304E+01 -0.71197E+01      982.00
  0.24427E-01  0.65793E+02    0.12500E-01  0.12500E-01 -0.25000E-01  0.00000E+00  0.00000E+00  0.00000E+00    0.21199E+02  0.21730E+02 -0.42928E+02 -0.29167E+01 -0.24562E+01 -0.67943E+01      982.00
  0.48894E-01  0.65569E+02    0.25000E-01  0.25000E-01 -0.50000E-01  0.00000E+00  0.00000E+00  0.00000E+00    0.21251E+02  0.21607E+02 -0.42858E+02 -0.28248E+01 -0.25050E+01 -0.64212E+01      982.00
  0.73405E-01  0.65451E+02    0.37500E-01  0.37500E-01 -0.75000E-01  0.00000E+00  0.00000E+00  0.00000E+00    0.21323E+02  0.21520E+02 -0.42843E+02 -0.27752E+01 -0.26160E+01 -0.60626E+01      982.00
  0.97952E-01  0.65421E+02    0.50000E-01  0.50000E-01 -0.10000E+00  0.00000E+00  0.00000E+00  0.00000E+00    0.21396E+02  0.21468E+02 -0.42864E+02 -0.27716E+01 -0.27662E+01 -0.57713E+01      982.00
  0.12252E+00  0.65454E+02    0.62500E-01  0.62500E-01 -0.12500E+00  0.00000E+00  0.00000E+00  0.00000E+00    0.21471E+02  0.21436E+02 -0.42907E+02 -0.27967E+01 -0.29299E+01 -0.55586E+01      982.00
  0.14710E+00  0.65536E+02    0.75000E-01  0.75000E-01 -0.15000E+00  0.00000E+00  0.00000E+00  0.00000E+00    0.21538E+02  0.21429E+02 -0.42967E+02 -0.28404E+01 -0.30836E+01 -0.54262E+01      982.00
  0.17169E+00  0.65673E+02    0.87500E-01  0.87500E-01 -0.17500E+00  0.00000E+00  0.00000E+00  0.00000E+00    0.21622E+02  0.21432E+02 -0.43054E+02 -0.28877E+01 -0.32231E+01 -0.53544E+01      982.00
  0.19628E+00  0.65833E+02    0.10000E+00  0.10000E+00 -0.20000E+00  0.00000E+00  0.00000E+00  0.00000E+00    0.21702E+02  0.21446E+02 -0.43148E+02 -0.29384E+01 -0.33421E+01 -0.53383E+01      982.00
  0.22085E+00  0.66011E+02    0.11250E+00  0.11250E+00 -0.22500E+00  0.00000E+00  0.00000E+00  0.00000E+00    0.21796E+02  0.21454E+02 -0.43250E+02 -0.29846E+01 -0.34448E+01 -0.53589E+01      982.00
  0.24542E+00  0.66225E+02    0.12500E+00  0.12500E+00 -0.25000E+00  0.00000E+00  0.00000E+00  0.00000E+00    0.21900E+02  0.21473E+02 -0.43373E+02 -0.30303E+01 -0.35317E+01 -0.54117E+01      982.00
  0.26998E+00  0.66443E+02    0.13750E+00  0.13750E+00 -0.27500E+00  0.00000E+00  0.00000E+00  0.00000E+00    0.22017E+02  0.21479E+02 -0.43497E+02 -0.30703E+01 -0.36077E+01 -0.54822E+01      982.00
  0.29453E+00  0.66672E+02    0.15000E+00  0.15000E+00 -0.30000E+00  0.00000E+00  0.00000E+00  0.00000E+00    0.22139E+02  0.21489E+02 -0.43627E+02 -0.31082E+01 -0.36719E+01 -0.55630E+01      982.00
  0.31907E+00  0.66903E+02    0.16250E+00  0.16250E+00 -0.32500E+00  0.00000E+00  0.00000E+00  0.00000E+00    0.22268E+02  0.21492E+02 -0.43760E+02 -0.31433E+01 -0.37273E+01 -0.56473E+01      982.00
  0.34360E+00  0.67125E+02    0.17500E+00  0.17500E+00 -0.35000E+00  0.00000E+00  0.00000E+00  0.00000E+00    0.22403E+02  0.21484E+02 -0.43887E+02 -0.31749E+01 -0.37771E+01 -0.57318E+01      982.00
  0.36812E+00  0.67346E+02    0.18750E+00  0.18750E+00 -0.37500E+00  0.00000E+00  0.00000E+00  0.00000E+00    0.22544E+02  0.21469E+02 -0.44014E+02 -0.32042E+01 -0.38206E+01 -0.58122E+01      982.00
  0.39263E+00  0.67551E+02    0.20000E+00  0.20000E+00 -0.40000E+00  0.00000E+00  0.00000E+00  0.00000E+00    0.22690E+02  0.21441E+02 -0.44131E+02 -0.32308E+01 -0.38611E+01 -0.58873E+01      982.00
  0.41712E+00  0.67751E+02    0.21250E+00  0.21250E+00 -0.42500E+00  0.00000E+00  0.00000E+00  0.00000E+00    0.22831E+02  0.21414E+02 -0.44246E+02 -0.32605E+01 -0.38959E+01 -0.59601E+01      982.00
  0.44161E+00  0.67928E+02    0.22500E+00  0.22500E+00 -0.45000E+00  0.00000E+00  0.00000E+00  0.00000E+00    0.22979E+02  0.21367E+02 -0.44346E+02 -0.32840E+01 -0.39293E+01 -0.60223E+01      982.00
  0.46609E+00  0.68077E+02    0.23750E+00  0.23750E+00 -0.47500E+00  0.00000E+00  0.00000E+00  0.00000E+00    0.23127E+02  0.21302E+02 -0.44428E+02 -0.33076E+01 -0.39616E+01 -0.60780E+01      982.00
  0.49057E+00  0.68237E+02    0.25000E+00  0.25000E+00 -0.50000E+00  0.00000E+00  0.00000E+00  0.00000E+00    0.23286E+02  0.21233E+02 -0.44519E+02 -0.33304E+01 -0.39939E+01 -0.61269E+01      982.00
  0.51503E+00  0.68359E+02    0.26250E+00  0.26250E+00 -0.52500E+00  0.00000E+00  0.00000E+00  0.00000E+00    0.23438E+02  0.21147E+02 -0.44585E+02 -0.33519E+01 -0.40234E+01 -0.61669E+01      982.00
  0.53949E+00  0.68484E+02    0.27500E+00  0.27500E+00 -0.55000E+00  0.00000E+00  0.00000E+00  0.00000E+00    0.23598E+02  0.21056E+02 -0.44654E+02 -0.33728E+01 -0.40521E+01 -0.62004E+01      982.00
  0.56394E+00  0.68590E+02    0.28750E+00  0.28750E+00 -0.57500E+00  0.00000E+00  0.00000E+00  0.00000E+00    0.23757E+02  0.20954E+02 -0.44711E+02 -0.33926E+01 -0.40800E+01 -0.62266E+01      982.00
  0.58839E+00  0.68684E+02    0.30000E+00  0.30000E+00 -0.60000E+00  0.00000E+00  0.00000E+00  0.00000E+00    0.23918E+02  0.20843E+02 -0.44761E+02 -0.34107E+01 -0.41061E+01 -0.62449E+01      982.00
  0.61283E+00  0.68761E+02    0.31250E+00  0.31250E+00 -0.62500E+00  0.00000E+00  0.00000E+00  0.00000E+00    0.24077E+02  0.20721E+02 -0.44799E+02 -0.34280E+01 -0.41313E+01 -0.62581E+01      982.00
  0.63726E+00  0.68843E+02    0.32500E+00  0.32500E+00 -0.65000E+00  0.00000E+00  0.00000E+00  0.00000E+00    0.24243E+02  0.20598E+02 -0.44842E+02 -0.34453E+01 -0.41557E+01 -0.62660E+01      982.00
  0.66168E+00  0.68920E+02    0.33750E+00  0.33750E+00 -0.67500E+00  0.00000E+00  0.00000E+00  0.00000E+00    0.24411E+02  0.20469E+02 -0.44881E+02 -0.34607E+01 -0.41792E+01 -0.62672E+01      982.00
  0.68610E+00  0.68976E+02    0.35000E+00  0.35000E+00 -0.70000E+00  0.00000E+00  0.00000E+00  0.00000E+00    0.24575E+02  0.20331E+02 -0.44906E+02 -0.34758E+01 -0.42017E+01 -0.62625E+01      982.00
  0.71052E+00  0.69028E+02    0.36250E+00  0.36250E+00 -0.72500E+00  0.00000E+00  0.00000E+00  0.00000E+00    0.24741E+02  0.20189E+02 -0.44930E+02 -0.34894E+01 -0.42225E+01 -0.62541E+01      982.00
  0.73493E+00  0.69077E+02    0.37500E+00  0.37500E+00 -0.75000E+00  0.00000E+00  0.00000E+00  0.00000E+00    0.24907E+02  0.20044E+02 -0.44950E+02 -0.35029E+01 -0.42430E+01 -0.62414E+01      982.00
  0.75933E+00  0.69116E+02    0.38750E+00  0.38750E+00 -0.77500E+00  0.00000E+00  0.00000E+00  0.00000E+00    0.25072E+02  0.19894E+02 -0.44965E+02 -0.35141E+01 -0.42618E+01 -0.62220E+01      982.00
  0.78373E+00  0.69159E+02    0.40000E+00  0.40000E+00 -0.80000E+00  0.00000E+00  0.00000E+00  0.00000E+00    0.25239E+02  0.19743E+02 -0.44983E+02 -0.35256E+01 -0.42799E+01 -0.62005E+01      982.00
  0.80812E+00  0.69199E+02    0.41250E+00  0.41250E+00 -0.82500E+00  0.00000E+00  0.00000E+00  0.00000E+00    0.25406E+02  0.19592E+02 -0.44998E+02 -0.35349E+01 -0.42958E+01 -0.61748E+01      982.00
  0.83250E+00  0.69226E+02    0.42500E+00  0.42500E+00 -0.85000E+00  0.00000E+00  0.00000E+00  0.00000E+00    0.25569E+02  0.19436E+02 -0.45005E+02 -0.35440E+01 -0.43111E+01 -0.61449E+01      982.00
  0.85688E+00  0.69252E+02    0.43750E+00  0.43750E+00 -0.87500E+00  0.00000E+00  0.00000E+00  0.00000E+00    0.25731E+02  0.19281E+02 -0.45012E+02 -0.35515E+01 -0.43249E+01 -0.61117E+01      982.00
  0.88126E+00  0.69283E+02    0.45000E+00  0.45000E+00 -0.90000E+00  0.00000E+00  0.00000E+00  0.00000E+00    0.25894E+02  0.19127E+02 -0.45021E+02 -0.35598E+01 -0.43387E+01 -0.60756E+01      982.00
  0.90562E+00  0.69256E+02    0.46250E+00  0.46250E+00 -0.92500E+00  0.00000E+00  0.00000E+00  0.00000E+00    0.26026E+02  0.18972E+02 -0.44998E+02 -0.35511E+01 -0.43356E+01 -0.60278E+01      982.00
  0.92999E+00  0.69226E+02    0.47500E+00  0.47500E+00 -0.95000E+00  0.00000E+00  0.00000E+00  0.00000E+00    0.26151E+02  0.18822E+02 -0.44973E+02 -0.35453E+01 -0.43300E+01 -0.59802E+01      982.00
  0.95435E+00  0.69194E+02    0.48750E+00  0.48750E+00 -0.97500E+00  0.00000E+00  0.00000E+00  0.00000E+00    0.26273E+02  0.18672E+02 -0.44946E+02 -0.35408E+01 -0.43212E+01 -0.59321E+01      982.00
  0.97871E+00  0.69172E+02    0.50000E+00  0.50000E+00 -0.10000E+01  0.00000E+00  0.00000E+00  0.00000E+00    0.26396E+02  0.18529E+02 -0.44925E+02 -0.35360E+01 -0.43137E+01 -0.58828E+01      982.00
