          Evm          Svm            E11          E22          E33          E23          E13          E12         SDEV11       SDEV22       SDEV33       SDEV23       SDEV13       SDEV12      TEMP
  0.00000E+00  0.62645E+02    0.00000E+00  0.00000E+00  0.00000E+00  0.00000E+00  0.00000E+00  0.00000E+00    0.21653E+02  0.18969E+02 -0.40622E+02 -0.38757E+01  0.25936E+01  0.68556E+01      982.00
  0.24317E-01  0.62795E+02    0.12500E-01  0.12500E-01 -0.25000E-01  0.00000E+00  0.00000E+00  0.00000E+00    0.22357E+02  0.18370E+02 -0.40727E+02 -0.37392E+01  0.22958E+01  0.68680E+01      982.00
  0.48638E-01  0.62854E+02    0.25000E-01  0.25000E-01 -0.50000E-01  0.00000E+00  0.00000E+00  0.00000E+00    0.22892E+02  0.17888E+02 -0.40780E+02 -0.34915E+01  0.21679E+01  0.68170E+01      982.00
  0.72968E-01  0.62915E+02    0.37500E-01  0.37500E-01 -0.75000E-01  0.00000E+00  0.00000E+00  0.00000E+00    0.23338E+02  0.17495E+02 -0.40832E+02 -0.31975E+01  0.21697E+01  0.67437E+01      982.00
  0.97306E-01  0.63006E+02    0.50000E-01  0.50000E-01 -0.10000E+00  0.00000E+00  0.00000E+00  0.00000E+00    0.23722E+02  0.17178E+02 -0.40900E+02 -0.29078E+01  0.22418E+01  0.66678E+01      982.00
  0.12165E+00  0.63117E+02    0.62500E-01  0.62500E-01 -0.12500E+00  0.00000E+00  0.00000E+00  0.00000E+00    0.24057E+02  0.16916E+02 -0.40973E+02 -0.26452E+01  0.23412E+01  0.66009E+01      982.00
  0.14599E+00  0.63252E+02    0.75000E-01  0.75000E-01 -0.15000E+00  0.00000E+00  0.00000E+00  0.00000E+00    0.24347E+02  0.16708E+02 -0.41056E+02 -0.24182E+01  0.24473E+01  0.65572E+01      982.00
  0.17033E+00  0.63428E+02    0.87500E-01  0.87500E-01 -0.17500E+00  0.00000E+00  0.00000E+00  0.00000E+00    0.24619E+02  0.16540E+02 -0.41160E+02 -0.22278E+01  0.25480E+01  0.65322E+01      982.00
  0.19467E+00  0.63647E+02    0.10000E+00  0.10000E+00 -0.20000E+00  0.00000E+00  0.00000E+00  0.00000E+00    0.24876E+02  0.16409E+02 -0.41286E+02 -0.20698E+01  0.26433E+01  0.65380E+01      982.00
  0.21899E+00  0.63881E+02    0.11250E+00  0.11250E+00 -0.22500E+00  0.00000E+00  0.00000E+00  0.00000E+00    0.25117E+02  0.16300E+02 -0.41417E+02 -0.19395E+01  0.27289E+01  0.65626E+01      982.00
  0.24331E+00  0.64144E+02    0.12500E+00  0.12500E+00 -0.25000E+00  0.00000E+00  0.00000E+00  0.00000E+00    0.25338E+02  0.16227E+02 -0.41565E+02 -0.18345E+01  0.28107E+01  0.66119E+01      982.00
  0.26761E+00  0.64433E+02    0.13750E+00  0.13750E+00 -0.27500E+00  0.00000E+00  0.00000E+00  0.00000E+00    0.25560E+02  0.16167E+02 -0.41727E+02 -0.17454E+01  0.28862E+01  0.66784E+01      982.00
  0.29189E+00  0.64707E+02    0.15000E+00  0.15000E+00 -0.30000E+00  0.00000E+00  0.00000E+00  0.00000E+00    0.25748E+02  0.16131E+02 -0.41879E+02 -0.16766E+01  0.29557E+01  0.67507E+01      982.00
  0.31616E+00  0.65011E+02    0.16250E+00  0.16250E+00 -0.32500E+00  0.00000E+00  0.00000E+00  0.00000E+00    0.25939E+02  0.16110E+02 -0.42049E+02 -0.16173E+01  0.30246E+01  0.68428E+01      982.00
  0.34042E+00  0.65318E+02    0.17500E+00  0.17500E+00 -0.35000E+00  0.00000E+00  0.00000E+00  0.00000E+00    0.26126E+02  0.16090E+02 -0.42217E+02 -0.15639E+01  0.30893E+01  0.69486E+01      982.00
  0.36465E+00  0.65638E+02    0.18750E+00  0.18750E+00 -0.37500E+00  0.00000E+00  0.00000E+00  0.00000E+00    0.26311E+02  0.16079E+02 -0.42390E+02 -0.15135E+01  0.31543E+01  0.70718E+01      982.00
  0.38887E+00  0.65922E+02    0.20000E+00  0.20000E+00 -0.40000E+00  0.00000E+00  0.00000E+00  0.00000E+00    0.26468E+02  0.16075E+02 -0.42543E+02 -0.14752E+01  0.32137E+01  0.71857E+01      982.00
  0.41307E+00  0.66197E+02    0.21250E+00  0.21250E+00 -0.42500E+00  0.00000E+00  0.00000E+00  0.00000E+00    0.26614E+02  0.16076E+02 -0.42690E+02 -0.14407E+01  0.32696E+01  0.73042E+01      982.00
  0.43726E+00  0.66451E+02    0.22500E+00  0.22500E+00 -0.45000E+00  0.00000E+00  0.00000E+00  0.00000E+00    0.26748E+02  0.16073E+02 -0.42821E+02 -0.14095E+01  0.33229E+01  0.74270E+01      982.00
  0.46142E+00  0.66703E+02    0.23750E+00  0.23750E+00 -0.47500E+00  0.00000E+00  0.00000E+00  0.00000E+00    0.26883E+02  0.16065E+02 -0.42948E+02 -0.13781E+01  0.33699E+01  0.75639E+01      982.00
  0.48557E+00  0.66925E+02    0.25000E+00  0.25000E+00 -0.50000E+00  0.00000E+00  0.00000E+00  0.00000E+00    0.26997E+02  0.16059E+02 -0.43056E+02 -0.13538E+01  0.34119E+01  0.76951E+01      982.00
  0.50969E+00  0.67124E+02    0.26250E+00  0.26250E+00 -0.52500E+00  0.00000E+00  0.00000E+00  0.00000E+00    0.27101E+02  0.16048E+02 -0.43149E+02 -0.13346E+01  0.34479E+01  0.78294E+01      982.00
  0.53380E+00  0.67312E+02    0.27500E+00  0.27500E+00 -0.55000E+00  0.00000E+00  0.00000E+00  0.00000E+00    0.27198E+02  0.16035E+02 -0.43233E+02 -0.13213E+01  0.34770E+01  0.79673E+01      982.00
  0.55788E+00  0.67478E+02    0.28750E+00  0.28750E+00 -0.57500E+00  0.00000E+00  0.00000E+00  0.00000E+00    0.27285E+02  0.16017E+02 -0.43302E+02 -0.13152E+01  0.34964E+01  0.81102E+01      982.00
  0.58195E+00  0.67629E+02    0.30000E+00  0.30000E+00 -0.60000E+00  0.00000E+00  0.00000E+00  0.00000E+00    0.27362E+02  0.15998E+02 -0.43360E+02 -0.13170E+01  0.35047E+01  0.82565E+01      982.00
  0.60599E+00  0.67730E+02    0.31250E+00  0.31250E+00 -0.62500E+00  0.00000E+00  0.00000E+00  0.00000E+00    0.27410E+02  0.15983E+02 -0.43393E+02 -0.13286E+01  0.35084E+01  0.83788E+01      982.00
  0.63002E+00  0.67857E+02    0.32500E+00  0.32500E+00 -0.65000E+00  0.00000E+00  0.00000E+00  0.00000E+00    0.27469E+02  0.15965E+02 -0.43435E+02 -0.13475E+01  0.34933E+01  0.85346E+01      982.00
  0.65402E+00  0.67971E+02    0.33750E+00  0.33750E+00 -0.67500E+00  0.00000E+00  0.00000E+00  0.00000E+00    0.27516E+02  0.15952E+02 -0.43468E+02 -0.13772E+01  0.34648E+01  0.86933E+01      982.00
  0.67800E+00  0.68069E+02    0.35000E+00  0.35000E+00 -0.70000E+00  0.00000E+00  0.00000E+00  0.00000E+00    0.27548E+02  0.15944E+02 -0.43492E+02 -0.14167E+01  0.34218E+01  0.88555E+01      982.00
  0.70196E+00  0.68157E+02    0.36250E+00  0.36250E+00 -0.72500E+00  0.00000E+00  0.00000E+00  0.00000E+00    0.27565E+02  0.15944E+02 -0.43509E+02 -0.14617E+01  0.33830E+01  0.90190E+01      982.00
  0.72590E+00  0.68240E+02    0.37500E+00  0.37500E+00 -0.75000E+00  0.00000E+00  0.00000E+00  0.00000E+00    0.27572E+02  0.15953E+02 -0.43525E+02 -0.15179E+01  0.33155E+01  0.91850E+01      982.00
  0.74982E+00  0.68313E+02    0.38750E+00  0.38750E+00 -0.77500E+00  0.00000E+00  0.00000E+00  0.00000E+00    0.27563E+02  0.15974E+02 -0.43537E+02 -0.15805E+01  0.32369E+01  0.93484E+01      982.00
  0.77372E+00  0.68385E+02    0.40000E+00  0.40000E+00 -0.80000E+00  0.00000E+00  0.00000E+00  0.00000E+00    0.27544E+02  0.16005E+02 -0.43549E+02 -0.16482E+01  0.31514E+01  0.95147E+01      982.00
  0.79760E+00  0.68469E+02    0.41250E+00  0.41250E+00 -0.82500E+00  0.00000E+00  0.00000E+00  0.00000E+00    0.27521E+02  0.16045E+02 -0.43566E+02 -0.17139E+01  0.30794E+01  0.96865E+01      982.00
  0.82146E+00  0.68539E+02    0.42500E+00  0.42500E+00 -0.85000E+00  0.00000E+00  0.00000E+00  0.00000E+00    0.27483E+02  0.16097E+02 -0.43580E+02 -0.17842E+01  0.29876E+01  0.98447E+01      982.00
  0.84530E+00  0.68607E+02    0.43750E+00  0.43750E+00 -0.87500E+00  0.00000E+00  0.00000E+00  0.00000E+00    0.27438E+02  0.16157E+02 -0.43595E+02 -0.18526E+01  0.28966E+01  0.99965E+01      982.00
  0.86913E+00  0.68674E+02    0.45000E+00  0.45000E+00 -0.90000E+00  0.00000E+00  0.00000E+00  0.00000E+00    0.27387E+02  0.16225E+02 -0.43612E+02 -0.19193E+01  0.28070E+01  0.10141E+02      982.00
  0.89295E+00  0.68741E+02    0.46250E+00  0.46250E+00 -0.92500E+00  0.00000E+00  0.00000E+00  0.00000E+00    0.27332E+02  0.16299E+02 -0.43630E+02 -0.19824E+01  0.27223E+01  0.10277E+02      982.00
  0.91675E+00  0.68813E+02    0.47500E+00  0.47500E+00 -0.95000E+00  0.00000E+00  0.00000E+00  0.00000E+00    0.27278E+02  0.16376E+02 -0.43654E+02 -0.20417E+01  0.26418E+01  0.10406E+02      982.00
  0.94054E+00  0.68845E+02    0.48750E+00  0.48750E+00 -0.97500E+00  0.00000E+00  0.00000E+00  0.00000E+00    0.27208E+02  0.16446E+02 -0.43654E+02 -0.20873E+01  0.25626E+01  0.10523E+02      982.00
  0.96432E+00  0.68868E+02    0.50000E+00  0.50000E+00 -0.10000E+01  0.00000E+00  0.00000E+00  0.00000E+00    0.27133E+02  0.16520E+02 -0.43653E+02 -0.21297E+01  0.24859E+01  0.10624E+02      982.00
