          Evm          Svm            E11          E22          E33          E23          E13          E12         SDEV11       SDEV22       SDEV33       SDEV23       SDEV13       SDEV12      TEMP
  0.00000E+00  0.61044E+02    0.00000E+00  0.00000E+00  0.00000E+00  0.00000E+00  0.00000E+00  0.00000E+00    0.16632E+02  0.19565E+02 -0.36197E+02 -0.19443E+01  0.29459E+01  0.15647E+02      982.00
  0.22236E-01  0.61076E+02    0.12500E-01  0.12500E-01 -0.25000E-01  0.00000E+00  0.00000E+00  0.00000E+00    0.16696E+02  0.19471E+02 -0.36167E+02 -0.19082E+01  0.29339E+01  0.15755E+02      982.00
  0.44442E-01  0.61127E+02    0.25000E-01  0.25000E-01 -0.50000E-01  0.00000E+00  0.00000E+00  0.00000E+00    0.16723E+02  0.19426E+02 -0.36150E+02 -0.19030E+01  0.29243E+01  0.15856E+02      982.00
  0.66619E-01  0.61216E+02    0.37500E-01  0.37500E-01 -0.75000E-01  0.00000E+00  0.00000E+00  0.00000E+00    0.16754E+02  0.19406E+02 -0.36160E+02 -0.19155E+01  0.29209E+01  0.15953E+02      982.00
  0.88770E-01  0.61352E+02    0.50000E-01  0.50000E-01 -0.10000E+00  0.00000E+00  0.00000E+00  0.00000E+00    0.16789E+02  0.19413E+02 -0.36202E+02 -0.19567E+01  0.29278E+01  0.16050E+02      982.00
  0.11090E+00  0.61480E+02    0.62500E-01  0.62500E-01 -0.12500E+00  0.00000E+00  0.00000E+00  0.00000E+00    0.16798E+02  0.19457E+02 -0.36255E+02 -0.20322E+01  0.29507E+01  0.16110E+02      982.00
  0.13301E+00  0.61528E+02    0.75000E-01  0.75000E-01 -0.15000E+00  0.00000E+00  0.00000E+00  0.00000E+00    0.16767E+02  0.19512E+02 -0.36279E+02 -0.20951E+01  0.29643E+01  0.16117E+02      982.00
  0.15512E+00  0.61634E+02    0.87500E-01  0.87500E-01 -0.17500E+00  0.00000E+00  0.00000E+00  0.00000E+00    0.16751E+02  0.19591E+02 -0.36342E+02 -0.21662E+01  0.29802E+01  0.16127E+02      982.00
  0.17723E+00  0.61758E+02    0.10000E+00  0.10000E+00 -0.20000E+00  0.00000E+00  0.00000E+00  0.00000E+00    0.16723E+02  0.19688E+02 -0.36411E+02 -0.22385E+01  0.29828E+01  0.16153E+02      982.00
  0.19934E+00  0.61890E+02    0.11250E+00  0.11250E+00 -0.22500E+00  0.00000E+00  0.00000E+00  0.00000E+00    0.16693E+02  0.19784E+02 -0.36477E+02 -0.22954E+01  0.29673E+01  0.16198E+02      982.00
  0.22145E+00  0.62034E+02    0.12500E+00  0.12500E+00 -0.25000E+00  0.00000E+00  0.00000E+00  0.00000E+00    0.16658E+02  0.19883E+02 -0.36541E+02 -0.23368E+01  0.29385E+01  0.16267E+02      982.00
  0.24354E+00  0.62186E+02    0.13750E+00  0.13750E+00 -0.27500E+00  0.00000E+00  0.00000E+00  0.00000E+00    0.16619E+02  0.19981E+02 -0.36600E+02 -0.23641E+01  0.29033E+01  0.16356E+02      982.00
  0.26561E+00  0.62356E+02    0.15000E+00  0.15000E+00 -0.30000E+00  0.00000E+00  0.00000E+00  0.00000E+00    0.16587E+02  0.20067E+02 -0.36654E+02 -0.23838E+01  0.28677E+01  0.16479E+02      982.00
  0.28765E+00  0.62532E+02    0.16250E+00  0.16250E+00 -0.32500E+00  0.00000E+00  0.00000E+00  0.00000E+00    0.16557E+02  0.20142E+02 -0.36699E+02 -0.23962E+01  0.28325E+01  0.16622E+02      982.00
  0.30966E+00  0.62701E+02    0.17500E+00  0.17500E+00 -0.35000E+00  0.00000E+00  0.00000E+00  0.00000E+00    0.16524E+02  0.20208E+02 -0.36732E+02 -0.24005E+01  0.27979E+01  0.16781E+02      982.00
  0.33163E+00  0.62877E+02    0.18750E+00  0.18750E+00 -0.37500E+00  0.00000E+00  0.00000E+00  0.00000E+00    0.16497E+02  0.20261E+02 -0.36759E+02 -0.24070E+01  0.27714E+01  0.16954E+02      982.00
  0.35355E+00  0.63051E+02    0.20000E+00  0.20000E+00 -0.40000E+00  0.00000E+00  0.00000E+00  0.00000E+00    0.16471E+02  0.20306E+02 -0.36776E+02 -0.24033E+01  0.27402E+01  0.17141E+02      982.00
  0.37542E+00  0.63212E+02    0.21250E+00  0.21250E+00 -0.42500E+00  0.00000E+00  0.00000E+00  0.00000E+00    0.16445E+02  0.20335E+02 -0.36780E+02 -0.24032E+01  0.27170E+01  0.17332E+02      982.00
  0.39724E+00  0.63381E+02    0.22500E+00  0.22500E+00 -0.45000E+00  0.00000E+00  0.00000E+00  0.00000E+00    0.16419E+02  0.20357E+02 -0.36775E+02 -0.23948E+01  0.26879E+01  0.17547E+02      982.00
  0.41900E+00  0.63517E+02    0.23750E+00  0.23750E+00 -0.47500E+00  0.00000E+00  0.00000E+00  0.00000E+00    0.16389E+02  0.20363E+02 -0.36752E+02 -0.23816E+01  0.26576E+01  0.17752E+02      982.00
  0.44070E+00  0.63641E+02    0.25000E+00  0.25000E+00 -0.50000E+00  0.00000E+00  0.00000E+00  0.00000E+00    0.16357E+02  0.20358E+02 -0.36715E+02 -0.23588E+01  0.26197E+01  0.17962E+02      982.00
  0.46233E+00  0.63740E+02    0.26250E+00  0.26250E+00 -0.52500E+00  0.00000E+00  0.00000E+00  0.00000E+00    0.16318E+02  0.20344E+02 -0.36662E+02 -0.23338E+01  0.25813E+01  0.18167E+02      982.00
  0.48390E+00  0.63841E+02    0.27500E+00  0.27500E+00 -0.55000E+00  0.00000E+00  0.00000E+00  0.00000E+00    0.16280E+02  0.20322E+02 -0.36602E+02 -0.22840E+01  0.25184E+01  0.18390E+02      982.00
  0.50540E+00  0.63934E+02    0.28750E+00  0.28750E+00 -0.57500E+00  0.00000E+00  0.00000E+00  0.00000E+00    0.16240E+02  0.20291E+02 -0.36532E+02 -0.22151E+01  0.24365E+01  0.18619E+02      982.00
  0.52683E+00  0.64014E+02    0.30000E+00  0.30000E+00 -0.60000E+00  0.00000E+00  0.00000E+00  0.00000E+00    0.16196E+02  0.20257E+02 -0.36452E+02 -0.21339E+01  0.23424E+01  0.18846E+02      982.00
  0.54818E+00  0.64091E+02    0.31250E+00  0.31250E+00 -0.62500E+00  0.00000E+00  0.00000E+00  0.00000E+00    0.16155E+02  0.20214E+02 -0.36369E+02 -0.20188E+01  0.22133E+01  0.19081E+02      982.00
  0.56946E+00  0.64162E+02    0.32500E+00  0.32500E+00 -0.65000E+00  0.00000E+00  0.00000E+00  0.00000E+00    0.16113E+02  0.20170E+02 -0.36283E+02 -0.18848E+01  0.20643E+01  0.19313E+02      982.00
  0.59067E+00  0.64231E+02    0.33750E+00  0.33750E+00 -0.67500E+00  0.00000E+00  0.00000E+00  0.00000E+00    0.16076E+02  0.20123E+02 -0.36199E+02 -0.17188E+01  0.18817E+01  0.19540E+02      982.00
  0.61180E+00  0.64298E+02    0.35000E+00  0.35000E+00 -0.70000E+00  0.00000E+00  0.00000E+00  0.00000E+00    0.16043E+02  0.20075E+02 -0.36118E+02 -0.15265E+01  0.16711E+01  0.19761E+02      982.00
  0.63287E+00  0.64365E+02    0.36250E+00  0.36250E+00 -0.72500E+00  0.00000E+00  0.00000E+00  0.00000E+00    0.16015E+02  0.20028E+02 -0.36043E+02 -0.13044E+01  0.14289E+01  0.19972E+02      982.00
  0.65387E+00  0.64440E+02    0.37500E+00  0.37500E+00 -0.75000E+00  0.00000E+00  0.00000E+00  0.00000E+00    0.15997E+02  0.19983E+02 -0.35980E+02 -0.10539E+01  0.11561E+01  0.20170E+02      982.00
  0.67480E+00  0.64517E+02    0.38750E+00  0.38750E+00 -0.77500E+00  0.00000E+00  0.00000E+00  0.00000E+00    0.15985E+02  0.19947E+02 -0.35931E+02 -0.78984E+00  0.86847E+00  0.20344E+02      982.00
  0.69569E+00  0.64599E+02    0.40000E+00  0.40000E+00 -0.80000E+00  0.00000E+00  0.00000E+00  0.00000E+00    0.15982E+02  0.19917E+02 -0.35899E+02 -0.51091E+00  0.56461E+00  0.20494E+02      982.00
  0.71653E+00  0.64691E+02    0.41250E+00  0.41250E+00 -0.82500E+00  0.00000E+00  0.00000E+00  0.00000E+00    0.15990E+02  0.19896E+02 -0.35886E+02 -0.21874E+00  0.24621E+00  0.20620E+02      982.00
  0.73733E+00  0.64784E+02    0.42500E+00  0.42500E+00 -0.85000E+00  0.00000E+00  0.00000E+00  0.00000E+00    0.16007E+02  0.19885E+02 -0.35892E+02  0.70654E-01 -0.69778E-01  0.20713E+02      982.00
  0.75811E+00  0.64887E+02    0.43750E+00  0.43750E+00 -0.87500E+00  0.00000E+00  0.00000E+00  0.00000E+00    0.16035E+02  0.19884E+02 -0.35918E+02  0.36181E+00 -0.38817E+00  0.20781E+02      982.00
  0.77886E+00  0.64994E+02    0.45000E+00  0.45000E+00 -0.90000E+00  0.00000E+00  0.00000E+00  0.00000E+00    0.16072E+02  0.19893E+02 -0.35964E+02  0.64572E+00 -0.69942E+00  0.20819E+02      982.00
  0.79962E+00  0.65105E+02    0.46250E+00  0.46250E+00 -0.92500E+00  0.00000E+00  0.00000E+00  0.00000E+00    0.16117E+02  0.19911E+02 -0.36029E+02  0.91899E+00 -0.99987E+00  0.20830E+02      982.00
  0.82037E+00  0.65218E+02    0.47500E+00  0.47500E+00 -0.95000E+00  0.00000E+00  0.00000E+00  0.00000E+00    0.16171E+02  0.19939E+02 -0.36110E+02  0.11792E+01 -0.12870E+01  0.20814E+02      982.00
  0.84113E+00  0.65332E+02    0.48750E+00  0.48750E+00 -0.97500E+00  0.00000E+00  0.00000E+00  0.00000E+00    0.16233E+02  0.19975E+02 -0.36208E+02  0.14248E+01 -0.15588E+01  0.20773E+02      982.00
  0.86191E+00  0.65447E+02    0.50000E+00  0.50000E+00 -0.10000E+01  0.00000E+00  0.00000E+00  0.00000E+00    0.16301E+02  0.20019E+02 -0.36320E+02  0.16551E+01 -0.18148E+01  0.20710E+02      982.00
