          Evm          Svm            E11          E22          E33          E23          E13          E12         SDEV11       SDEV22       SDEV33       SDEV23       SDEV13       SDEV12      TEMP
  0.00000E+00  0.49584E+02    0.00000E+00  0.00000E+00  0.00000E+00  0.00000E+00  0.00000E+00  0.00000E+00    0.11610E+02  0.19708E+02 -0.31318E+02 -0.49474E+01 -0.11966E+01 -0.64494E+01      982.00
  0.23686E-01  0.50238E+02    0.12500E-01  0.12500E-01 -0.25000E-01  0.00000E+00  0.00000E+00  0.00000E+00    0.12082E+02  0.19377E+02 -0.31460E+02 -0.54729E+01 -0.19480E+01 -0.72081E+01      982.00
  0.47169E-01  0.50864E+02    0.25000E-01  0.25000E-01 -0.50000E-01  0.00000E+00  0.00000E+00  0.00000E+00    0.12518E+02  0.19124E+02 -0.31641E+02 -0.58505E+01 -0.24551E+01 -0.77677E+01      982.00
  0.70497E-01  0.51468E+02    0.37500E-01  0.37500E-01 -0.75000E-01  0.00000E+00  0.00000E+00  0.00000E+00    0.12902E+02  0.18952E+02 -0.31854E+02 -0.61311E+01 -0.28126E+01 -0.82053E+01      982.00
  0.93706E-01  0.52051E+02    0.50000E-01  0.50000E-01 -0.10000E+00  0.00000E+00  0.00000E+00  0.00000E+00    0.13233E+02  0.18857E+02 -0.32090E+02 -0.63386E+01 -0.30704E+01 -0.85598E+01      982.00
  0.11682E+00  0.52614E+02    0.62500E-01  0.62500E-01 -0.12500E+00  0.00000E+00  0.00000E+00  0.00000E+00    0.13514E+02  0.18829E+02 -0.32344E+02 -0.64878E+01 -0.32577E+01 -0.88551E+01      982.00
  0.13988E+00  0.53165E+02    0.75000E-01  0.75000E-01 -0.15000E+00  0.00000E+00  0.00000E+00  0.00000E+00    0.13755E+02  0.18860E+02 -0.32614E+02 -0.65889E+01 -0.33938E+01 -0.91077E+01      982.00
  0.16288E+00  0.53701E+02    0.87500E-01  0.87500E-01 -0.17500E+00  0.00000E+00  0.00000E+00  0.00000E+00    0.13962E+02  0.18935E+02 -0.32897E+02 -0.66522E+01 -0.34954E+01 -0.93262E+01      982.00
  0.18585E+00  0.54224E+02    0.10000E+00  0.10000E+00 -0.20000E+00  0.00000E+00  0.00000E+00  0.00000E+00    0.14137E+02  0.19051E+02 -0.33188E+02 -0.66836E+01 -0.35655E+01 -0.95168E+01      982.00
  0.20881E+00  0.54750E+02    0.11250E+00  0.11250E+00 -0.22500E+00  0.00000E+00  0.00000E+00  0.00000E+00    0.14288E+02  0.19200E+02 -0.33488E+02 -0.66992E+01 -0.36238E+01 -0.96984E+01      982.00
  0.23174E+00  0.55269E+02    0.12500E+00  0.12500E+00 -0.25000E+00  0.00000E+00  0.00000E+00  0.00000E+00    0.14423E+02  0.19377E+02 -0.33800E+02 -0.66865E+01 -0.36570E+01 -0.98579E+01      982.00
  0.25468E+00  0.55808E+02    0.13750E+00  0.13750E+00 -0.27500E+00  0.00000E+00  0.00000E+00  0.00000E+00    0.14547E+02  0.19577E+02 -0.34124E+02 -0.66680E+01 -0.36897E+01 -0.10022E+02      982.00
  0.27761E+00  0.56334E+02    0.15000E+00  0.15000E+00 -0.30000E+00  0.00000E+00  0.00000E+00  0.00000E+00    0.14668E+02  0.19784E+02 -0.34453E+02 -0.66330E+01 -0.37124E+01 -0.10163E+02      982.00
  0.30054E+00  0.56864E+02    0.16250E+00  0.16250E+00 -0.32500E+00  0.00000E+00  0.00000E+00  0.00000E+00    0.14789E+02  0.19998E+02 -0.34787E+02 -0.65921E+01 -0.37341E+01 -0.10298E+02      982.00
  0.32348E+00  0.57396E+02    0.17500E+00  0.17500E+00 -0.35000E+00  0.00000E+00  0.00000E+00  0.00000E+00    0.14911E+02  0.20216E+02 -0.35127E+02 -0.65474E+01 -0.37566E+01 -0.10426E+02      982.00
  0.34643E+00  0.57930E+02    0.18750E+00  0.18750E+00 -0.37500E+00  0.00000E+00  0.00000E+00  0.00000E+00    0.15035E+02  0.20434E+02 -0.35469E+02 -0.65004E+01 -0.37807E+01 -0.10546E+02      982.00
  0.36939E+00  0.58461E+02    0.20000E+00  0.20000E+00 -0.40000E+00  0.00000E+00  0.00000E+00  0.00000E+00    0.15164E+02  0.20650E+02 -0.35814E+02 -0.64520E+01 -0.38066E+01 -0.10659E+02      982.00
  0.39236E+00  0.58988E+02    0.21250E+00  0.21250E+00 -0.42500E+00  0.00000E+00  0.00000E+00  0.00000E+00    0.15296E+02  0.20862E+02 -0.36158E+02 -0.64030E+01 -0.38340E+01 -0.10764E+02      982.00
  0.41535E+00  0.59508E+02    0.22500E+00  0.22500E+00 -0.45000E+00  0.00000E+00  0.00000E+00  0.00000E+00    0.15434E+02  0.21068E+02 -0.36501E+02 -0.63537E+01 -0.38628E+01 -0.10860E+02      982.00
  0.43835E+00  0.60020E+02    0.23750E+00  0.23750E+00 -0.47500E+00  0.00000E+00  0.00000E+00  0.00000E+00    0.15575E+02  0.21266E+02 -0.36841E+02 -0.63044E+01 -0.38923E+01 -0.10947E+02      982.00
  0.46137E+00  0.60520E+02    0.25000E+00  0.25000E+00 -0.50000E+00  0.00000E+00  0.00000E+00  0.00000E+00    0.15720E+02  0.21456E+02 -0.37177E+02 -0.62551E+01 -0.39221E+01 -0.11025E+02      982.00
  0.48441E+00  0.61006E+02    0.26250E+00  0.26250E+00 -0.52500E+00  0.00000E+00  0.00000E+00  0.00000E+00    0.15869E+02  0.21638E+02 -0.37507E+02 -0.62058E+01 -0.39517E+01 -0.11094E+02      982.00
  0.50746E+00  0.61478E+02    0.27500E+00  0.27500E+00 -0.55000E+00  0.00000E+00  0.00000E+00  0.00000E+00    0.16020E+02  0.21809E+02 -0.37830E+02 -0.61565E+01 -0.39803E+01 -0.11154E+02      982.00
  0.53054E+00  0.61934E+02    0.28750E+00  0.28750E+00 -0.57500E+00  0.00000E+00  0.00000E+00  0.00000E+00    0.16174E+02  0.21971E+02 -0.38145E+02 -0.61070E+01 -0.40077E+01 -0.11205E+02      982.00
  0.55363E+00  0.62370E+02    0.30000E+00  0.30000E+00 -0.60000E+00  0.00000E+00  0.00000E+00  0.00000E+00    0.16329E+02  0.22123E+02 -0.38452E+02 -0.60546E+01 -0.40315E+01 -0.11245E+02      982.00
  0.57675E+00  0.62792E+02    0.31250E+00  0.31250E+00 -0.62500E+00  0.00000E+00  0.00000E+00  0.00000E+00    0.16484E+02  0.22266E+02 -0.38750E+02 -0.60046E+01 -0.40552E+01 -0.11280E+02      982.00
  0.59989E+00  0.63196E+02    0.32500E+00  0.32500E+00 -0.65000E+00  0.00000E+00  0.00000E+00  0.00000E+00    0.16640E+02  0.22399E+02 -0.39039E+02 -0.59544E+01 -0.40767E+01 -0.11307E+02      982.00
  0.62306E+00  0.63578E+02    0.33750E+00  0.33750E+00 -0.67500E+00  0.00000E+00  0.00000E+00  0.00000E+00    0.16789E+02  0.22526E+02 -0.39315E+02 -0.59101E+01 -0.40883E+01 -0.11326E+02      982.00
  0.64625E+00  0.63947E+02    0.35000E+00  0.35000E+00 -0.70000E+00  0.00000E+00  0.00000E+00  0.00000E+00    0.16942E+02  0.22642E+02 -0.39584E+02 -0.58601E+01 -0.41048E+01 -0.11340E+02      982.00
  0.66946E+00  0.64284E+02    0.36250E+00  0.36250E+00 -0.72500E+00  0.00000E+00  0.00000E+00  0.00000E+00    0.17088E+02  0.22747E+02 -0.39835E+02 -0.58090E+01 -0.41152E+01 -0.11345E+02      982.00
  0.69270E+00  0.64618E+02    0.37500E+00  0.37500E+00 -0.75000E+00  0.00000E+00  0.00000E+00  0.00000E+00    0.17238E+02  0.22846E+02 -0.40084E+02 -0.57584E+01 -0.41274E+01 -0.11347E+02      982.00
  0.71596E+00  0.64936E+02    0.38750E+00  0.38750E+00 -0.77500E+00  0.00000E+00  0.00000E+00  0.00000E+00    0.17385E+02  0.22938E+02 -0.40323E+02 -0.57076E+01 -0.41375E+01 -0.11343E+02      982.00
  0.73925E+00  0.65236E+02    0.40000E+00  0.40000E+00 -0.80000E+00  0.00000E+00  0.00000E+00  0.00000E+00    0.17530E+02  0.23022E+02 -0.40552E+02 -0.56569E+01 -0.41453E+01 -0.11335E+02      982.00
  0.76256E+00  0.65520E+02    0.41250E+00  0.41250E+00 -0.82500E+00  0.00000E+00  0.00000E+00  0.00000E+00    0.17671E+02  0.23100E+02 -0.40771E+02 -0.56062E+01 -0.41509E+01 -0.11323E+02      982.00
  0.78589E+00  0.65788E+02    0.42500E+00  0.42500E+00 -0.85000E+00  0.00000E+00  0.00000E+00  0.00000E+00    0.17808E+02  0.23171E+02 -0.40980E+02 -0.55557E+01 -0.41546E+01 -0.11308E+02      982.00
  0.80925E+00  0.66041E+02    0.43750E+00  0.43750E+00 -0.87500E+00  0.00000E+00  0.00000E+00  0.00000E+00    0.17942E+02  0.23237E+02 -0.41179E+02 -0.55055E+01 -0.41564E+01 -0.11289E+02      982.00
  0.83263E+00  0.66280E+02    0.45000E+00  0.45000E+00 -0.90000E+00  0.00000E+00  0.00000E+00  0.00000E+00    0.18072E+02  0.23297E+02 -0.41369E+02 -0.54558E+01 -0.41565E+01 -0.11267E+02      982.00
  0.85604E+00  0.66505E+02    0.46250E+00  0.46250E+00 -0.92500E+00  0.00000E+00  0.00000E+00  0.00000E+00    0.18197E+02  0.23352E+02 -0.41550E+02 -0.54066E+01 -0.41552E+01 -0.11243E+02      982.00
  0.87947E+00  0.66718E+02    0.47500E+00  0.47500E+00 -0.95000E+00  0.00000E+00  0.00000E+00  0.00000E+00    0.18318E+02  0.23403E+02 -0.41721E+02 -0.53581E+01 -0.41525E+01 -0.11217E+02      982.00
  0.90292E+00  0.66840E+02    0.48750E+00  0.48750E+00 -0.97500E+00  0.00000E+00  0.00000E+00  0.00000E+00    0.18414E+02  0.23433E+02 -0.41847E+02 -0.52824E+01 -0.41214E+01 -0.11163E+02      982.00
  0.92640E+00  0.66961E+02    0.50000E+00  0.50000E+00 -0.10000E+01  0.00000E+00  0.00000E+00  0.00000E+00    0.18508E+02  0.23460E+02 -0.41968E+02 -0.52137E+01 -0.40960E+01 -0.11114E+02      982.00
