          Evm          Svm            E11          E22          E33          E23          E13          E12         SDEV11       SDEV22       SDEV33       SDEV23       SDEV13       SDEV12      TEMP
  0.00000E+00  0.57073E+02    0.00000E+00  0.00000E+00  0.00000E+00  0.00000E+00  0.00000E+00  0.00000E+00    0.16653E+02  0.17703E+02 -0.34356E+02 -0.35090E+01  0.23858E+01  0.13500E+02      982.00
  0.22574E-01  0.57140E+02    0.12500E-01  0.12500E-01 -0.25000E-01  0.00000E+00  0.00000E+00  0.00000E+00    0.16797E+02  0.17570E+02 -0.34367E+02 -0.33437E+01  0.24320E+01  0.13611E+02      982.00
  0.45128E-01  0.57298E+02    0.25000E-01  0.25000E-01 -0.50000E-01  0.00000E+00  0.00000E+00  0.00000E+00    0.16915E+02  0.17498E+02 -0.34414E+02 -0.32157E+01  0.24316E+01  0.13777E+02      982.00
  0.67651E-01  0.57532E+02    0.37500E-01  0.37500E-01 -0.75000E-01  0.00000E+00  0.00000E+00  0.00000E+00    0.17021E+02  0.17471E+02 -0.34492E+02 -0.31010E+01  0.24144E+01  0.13983E+02      982.00
  0.90133E-01  0.57828E+02    0.50000E-01  0.50000E-01 -0.10000E+00  0.00000E+00  0.00000E+00  0.00000E+00    0.17120E+02  0.17480E+02 -0.34600E+02 -0.29953E+01  0.23836E+01  0.14218E+02      982.00
  0.11257E+00  0.58175E+02    0.62500E-01  0.62500E-01 -0.12500E+00  0.00000E+00  0.00000E+00  0.00000E+00    0.17212E+02  0.17519E+02 -0.34731E+02 -0.28957E+01  0.23410E+01  0.14475E+02      982.00
  0.13496E+00  0.58568E+02    0.75000E-01  0.75000E-01 -0.15000E+00  0.00000E+00  0.00000E+00  0.00000E+00    0.17300E+02  0.17583E+02 -0.34883E+02 -0.28073E+01  0.22897E+01  0.14753E+02      982.00
  0.15729E+00  0.58990E+02    0.87500E-01  0.87500E-01 -0.17500E+00  0.00000E+00  0.00000E+00  0.00000E+00    0.17388E+02  0.17660E+02 -0.35048E+02 -0.27057E+01  0.22258E+01  0.15046E+02      982.00
  0.17957E+00  0.59425E+02    0.10000E+00  0.10000E+00 -0.20000E+00  0.00000E+00  0.00000E+00  0.00000E+00    0.17473E+02  0.17751E+02 -0.35224E+02 -0.26330E+01  0.21705E+01  0.15326E+02      982.00
  0.20180E+00  0.59864E+02    0.11250E+00  0.11250E+00 -0.22500E+00  0.00000E+00  0.00000E+00  0.00000E+00    0.17559E+02  0.17847E+02 -0.35406E+02 -0.25680E+01  0.21167E+01  0.15598E+02      982.00
  0.22398E+00  0.60297E+02    0.12500E+00  0.12500E+00 -0.25000E+00  0.00000E+00  0.00000E+00  0.00000E+00    0.17645E+02  0.17944E+02 -0.35589E+02 -0.25101E+01  0.20665E+01  0.15854E+02      982.00
  0.24611E+00  0.60716E+02    0.13750E+00  0.13750E+00 -0.27500E+00  0.00000E+00  0.00000E+00  0.00000E+00    0.17731E+02  0.18040E+02 -0.35771E+02 -0.24591E+01  0.20206E+01  0.16093E+02      982.00
  0.26821E+00  0.61116E+02    0.15000E+00  0.15000E+00 -0.30000E+00  0.00000E+00  0.00000E+00  0.00000E+00    0.17816E+02  0.18131E+02 -0.35948E+02 -0.24145E+01  0.19792E+01  0.16313E+02      982.00
  0.29026E+00  0.61512E+02    0.16250E+00  0.16250E+00 -0.32500E+00  0.00000E+00  0.00000E+00  0.00000E+00    0.17901E+02  0.18220E+02 -0.36121E+02 -0.23635E+01  0.19312E+01  0.16533E+02      982.00
  0.31229E+00  0.61861E+02    0.17500E+00  0.17500E+00 -0.35000E+00  0.00000E+00  0.00000E+00  0.00000E+00    0.17983E+02  0.18299E+02 -0.36283E+02 -0.23309E+01  0.18991E+01  0.16710E+02      982.00
  0.33428E+00  0.62185E+02    0.18750E+00  0.18750E+00 -0.37500E+00  0.00000E+00  0.00000E+00  0.00000E+00    0.18064E+02  0.18372E+02 -0.36435E+02 -0.23030E+01  0.18714E+01  0.16867E+02      982.00
  0.35625E+00  0.62484E+02    0.20000E+00  0.20000E+00 -0.40000E+00  0.00000E+00  0.00000E+00  0.00000E+00    0.18142E+02  0.18437E+02 -0.36579E+02 -0.22790E+01  0.18471E+01  0.17008E+02      982.00
  0.37820E+00  0.62758E+02    0.21250E+00  0.21250E+00 -0.42500E+00  0.00000E+00  0.00000E+00  0.00000E+00    0.18217E+02  0.18496E+02 -0.36713E+02 -0.22581E+01  0.18260E+01  0.17133E+02      982.00
  0.40014E+00  0.63005E+02    0.22500E+00  0.22500E+00 -0.45000E+00  0.00000E+00  0.00000E+00  0.00000E+00    0.18287E+02  0.18543E+02 -0.36831E+02 -0.22339E+01  0.18009E+01  0.17251E+02      982.00
  0.42206E+00  0.63239E+02    0.23750E+00  0.23750E+00 -0.47500E+00  0.00000E+00  0.00000E+00  0.00000E+00    0.18359E+02  0.18594E+02 -0.36953E+02 -0.22238E+01  0.17905E+01  0.17341E+02      982.00
  0.44398E+00  0.63442E+02    0.25000E+00  0.25000E+00 -0.50000E+00  0.00000E+00  0.00000E+00  0.00000E+00    0.18424E+02  0.18629E+02 -0.37053E+02 -0.22053E+01  0.17712E+01  0.17434E+02      982.00
  0.46588E+00  0.63635E+02    0.26250E+00  0.26250E+00 -0.52500E+00  0.00000E+00  0.00000E+00  0.00000E+00    0.18490E+02  0.18664E+02 -0.37154E+02 -0.21938E+01  0.17592E+01  0.17509E+02      982.00
  0.48777E+00  0.63811E+02    0.27500E+00  0.27500E+00 -0.55000E+00  0.00000E+00  0.00000E+00  0.00000E+00    0.18553E+02  0.18695E+02 -0.37247E+02 -0.21836E+01  0.17486E+01  0.17576E+02      982.00
  0.50966E+00  0.63972E+02    0.28750E+00  0.28750E+00 -0.57500E+00  0.00000E+00  0.00000E+00  0.00000E+00    0.18613E+02  0.18721E+02 -0.37334E+02 -0.21747E+01  0.17392E+01  0.17636E+02      982.00
  0.53155E+00  0.64120E+02    0.30000E+00  0.30000E+00 -0.60000E+00  0.00000E+00  0.00000E+00  0.00000E+00    0.18671E+02  0.18743E+02 -0.37414E+02 -0.21668E+01  0.17309E+01  0.17689E+02      982.00
  0.55343E+00  0.64255E+02    0.31250E+00  0.31250E+00 -0.62500E+00  0.00000E+00  0.00000E+00  0.00000E+00    0.18726E+02  0.18761E+02 -0.37488E+02 -0.21598E+01  0.17235E+01  0.17737E+02      982.00
  0.57531E+00  0.64411E+02    0.32500E+00  0.32500E+00 -0.65000E+00  0.00000E+00  0.00000E+00  0.00000E+00    0.18796E+02  0.18775E+02 -0.37572E+02 -0.21476E+01  0.17109E+01  0.17796E+02      982.00
  0.59718E+00  0.64522E+02    0.33750E+00  0.33750E+00 -0.67500E+00  0.00000E+00  0.00000E+00  0.00000E+00    0.18849E+02  0.18785E+02 -0.37633E+02 -0.21410E+01  0.17042E+01  0.17833E+02      982.00
  0.61905E+00  0.64624E+02    0.35000E+00  0.35000E+00 -0.70000E+00  0.00000E+00  0.00000E+00  0.00000E+00    0.18898E+02  0.18793E+02 -0.37691E+02 -0.21365E+01  0.16993E+01  0.17866E+02      982.00
  0.64092E+00  0.64719E+02    0.36250E+00  0.36250E+00 -0.72500E+00  0.00000E+00  0.00000E+00  0.00000E+00    0.18945E+02  0.18800E+02 -0.37745E+02 -0.21327E+01  0.16951E+01  0.17896E+02      982.00
  0.66279E+00  0.64780E+02    0.37500E+00  0.37500E+00 -0.75000E+00  0.00000E+00  0.00000E+00  0.00000E+00    0.18980E+02  0.18799E+02 -0.37779E+02 -0.21327E+01  0.16944E+01  0.17915E+02      982.00
  0.68466E+00  0.64867E+02    0.38750E+00  0.38750E+00 -0.77500E+00  0.00000E+00  0.00000E+00  0.00000E+00    0.19025E+02  0.18804E+02 -0.37829E+02 -0.21304E+01  0.16915E+01  0.17941E+02      982.00
  0.70653E+00  0.64943E+02    0.40000E+00  0.40000E+00 -0.80000E+00  0.00000E+00  0.00000E+00  0.00000E+00    0.19067E+02  0.18806E+02 -0.37873E+02 -0.21277E+01  0.16881E+01  0.17964E+02      982.00
  0.72840E+00  0.65015E+02    0.41250E+00  0.41250E+00 -0.82500E+00  0.00000E+00  0.00000E+00  0.00000E+00    0.19109E+02  0.18806E+02 -0.37915E+02 -0.21253E+01  0.16850E+01  0.17985E+02      982.00
  0.75027E+00  0.65082E+02    0.42500E+00  0.42500E+00 -0.85000E+00  0.00000E+00  0.00000E+00  0.00000E+00    0.19149E+02  0.18804E+02 -0.37953E+02 -0.21232E+01  0.16822E+01  0.18005E+02      982.00
  0.77214E+00  0.65144E+02    0.43750E+00  0.43750E+00 -0.87500E+00  0.00000E+00  0.00000E+00  0.00000E+00    0.19188E+02  0.18801E+02 -0.37989E+02 -0.21215E+01  0.16797E+01  0.18023E+02      982.00
  0.79401E+00  0.65202E+02    0.45000E+00  0.45000E+00 -0.90000E+00  0.00000E+00  0.00000E+00  0.00000E+00    0.19226E+02  0.18797E+02 -0.38023E+02 -0.21202E+01  0.16774E+01  0.18040E+02      982.00
  0.81588E+00  0.65257E+02    0.46250E+00  0.46250E+00 -0.92500E+00  0.00000E+00  0.00000E+00  0.00000E+00    0.19263E+02  0.18792E+02 -0.38055E+02 -0.21191E+01  0.16753E+01  0.18055E+02      982.00
  0.83774E+00  0.65333E+02    0.47500E+00  0.47500E+00 -0.95000E+00  0.00000E+00  0.00000E+00  0.00000E+00    0.19323E+02  0.18775E+02 -0.38098E+02 -0.21153E+01  0.16700E+01  0.18080E+02      982.00
  0.85961E+00  0.65355E+02    0.48750E+00  0.48750E+00 -0.97500E+00  0.00000E+00  0.00000E+00  0.00000E+00    0.19335E+02  0.18778E+02 -0.38112E+02 -0.21167E+01  0.16712E+01  0.18083E+02      982.00
  0.88148E+00  0.65363E+02    0.50000E+00  0.50000E+00 -0.10000E+01  0.00000E+00  0.00000E+00  0.00000E+00    0.19323E+02  0.18793E+02 -0.38116E+02 -0.21176E+01  0.16741E+01  0.18087E+02      982.00
