          Evm          Svm            E11          E22          E33          E23          E13          E12         SDEV11       SDEV22       SDEV33       SDEV23       SDEV13       SDEV12      TEMP
  0.00000E+00  0.61240E+02    0.00000E+00  0.00000E+00  0.00000E+00  0.00000E+00  0.00000E+00  0.00000E+00    0.25121E+02  0.13038E+02 -0.38159E+02  0.50792E+01  0.29442E+01 -0.93297E+01      982.00
  0.23367E-01  0.61625E+02    0.12500E-01  0.12500E-01 -0.25000E-01  0.00000E+00  0.00000E+00  0.00000E+00    0.25273E+02  0.13165E+02 -0.38438E+02  0.50830E+01  0.30532E+01 -0.92716E+01      982.00
  0.46757E-01  0.61926E+02    0.25000E-01  0.25000E-01 -0.50000E-01  0.00000E+00  0.00000E+00  0.00000E+00    0.25259E+02  0.13442E+02 -0.38700E+02  0.51754E+01  0.30538E+01 -0.91638E+01      982.00
  0.70192E-01  0.61982E+02    0.37500E-01  0.37500E-01 -0.75000E-01  0.00000E+00  0.00000E+00  0.00000E+00    0.25147E+02  0.13686E+02 -0.38834E+02  0.51730E+01  0.30903E+01 -0.89652E+01      982.00
  0.93688E-01  0.62030E+02    0.50000E-01  0.50000E-01 -0.10000E+00  0.00000E+00  0.00000E+00  0.00000E+00    0.25175E+02  0.13781E+02 -0.38956E+02  0.50033E+01  0.32810E+01 -0.87270E+01      982.00
  0.11724E+00  0.62176E+02    0.62500E-01  0.62500E-01 -0.12500E+00  0.00000E+00  0.00000E+00  0.00000E+00    0.25289E+02  0.13825E+02 -0.39114E+02  0.48197E+01  0.35496E+01 -0.85158E+01      982.00
  0.14083E+00  0.62412E+02    0.75000E-01  0.75000E-01 -0.15000E+00  0.00000E+00  0.00000E+00  0.00000E+00    0.25480E+02  0.13828E+02 -0.39309E+02  0.46401E+01  0.38239E+01 -0.83325E+01      982.00
  0.16445E+00  0.62690E+02    0.87500E-01  0.87500E-01 -0.17500E+00  0.00000E+00  0.00000E+00  0.00000E+00    0.25704E+02  0.13811E+02 -0.39515E+02  0.44865E+01  0.40625E+01 -0.81811E+01      982.00
  0.18808E+00  0.63020E+02    0.10000E+00  0.10000E+00 -0.20000E+00  0.00000E+00  0.00000E+00  0.00000E+00    0.25956E+02  0.13787E+02 -0.39744E+02  0.43611E+01  0.42528E+01 -0.80629E+01      982.00
  0.21173E+00  0.63375E+02    0.11250E+00  0.11250E+00 -0.22500E+00  0.00000E+00  0.00000E+00  0.00000E+00    0.26221E+02  0.13761E+02 -0.39982E+02  0.42628E+01  0.43944E+01 -0.79734E+01      982.00
  0.23539E+00  0.63751E+02    0.12500E+00  0.12500E+00 -0.25000E+00  0.00000E+00  0.00000E+00  0.00000E+00    0.26490E+02  0.13740E+02 -0.40230E+02  0.41890E+01  0.44928E+01 -0.79081E+01      982.00
  0.25906E+00  0.64138E+02    0.13750E+00  0.13750E+00 -0.27500E+00  0.00000E+00  0.00000E+00  0.00000E+00    0.26755E+02  0.13727E+02 -0.40482E+02  0.41392E+01  0.45551E+01 -0.78614E+01      982.00
  0.28273E+00  0.64535E+02    0.15000E+00  0.15000E+00 -0.30000E+00  0.00000E+00  0.00000E+00  0.00000E+00    0.27021E+02  0.13720E+02 -0.40741E+02  0.41036E+01  0.45895E+01 -0.78265E+01      982.00
  0.30640E+00  0.64933E+02    0.16250E+00  0.16250E+00 -0.32500E+00  0.00000E+00  0.00000E+00  0.00000E+00    0.27282E+02  0.13719E+02 -0.41001E+02  0.40800E+01  0.46020E+01 -0.77984E+01      982.00
  0.33008E+00  0.65315E+02    0.17500E+00  0.17500E+00 -0.35000E+00  0.00000E+00  0.00000E+00  0.00000E+00    0.27528E+02  0.13723E+02 -0.41251E+02  0.40681E+01  0.45976E+01 -0.77743E+01      982.00
  0.35376E+00  0.65671E+02    0.18750E+00  0.18750E+00 -0.37500E+00  0.00000E+00  0.00000E+00  0.00000E+00    0.27757E+02  0.13728E+02 -0.41485E+02  0.40644E+01  0.45814E+01 -0.77508E+01      982.00
  0.37745E+00  0.66038E+02    0.20000E+00  0.20000E+00 -0.40000E+00  0.00000E+00  0.00000E+00  0.00000E+00    0.27978E+02  0.13751E+02 -0.41730E+02  0.40729E+01  0.45541E+01 -0.77278E+01      982.00
  0.40115E+00  0.66353E+02    0.21250E+00  0.21250E+00 -0.42500E+00  0.00000E+00  0.00000E+00  0.00000E+00    0.28173E+02  0.13768E+02 -0.41941E+02  0.40793E+01  0.45209E+01 -0.77023E+01      982.00
  0.42485E+00  0.66667E+02    0.22500E+00  0.22500E+00 -0.45000E+00  0.00000E+00  0.00000E+00  0.00000E+00    0.28365E+02  0.13788E+02 -0.42152E+02  0.40929E+01  0.44858E+01 -0.76737E+01      982.00
  0.44856E+00  0.66965E+02    0.23750E+00  0.23750E+00 -0.47500E+00  0.00000E+00  0.00000E+00  0.00000E+00    0.28548E+02  0.13807E+02 -0.42355E+02  0.41105E+01  0.44472E+01 -0.76381E+01      982.00
  0.47228E+00  0.67254E+02    0.25000E+00  0.25000E+00 -0.50000E+00  0.00000E+00  0.00000E+00  0.00000E+00    0.28725E+02  0.13828E+02 -0.42554E+02  0.41333E+01  0.44005E+01 -0.75934E+01      982.00
  0.49601E+00  0.67512E+02    0.26250E+00  0.26250E+00 -0.52500E+00  0.00000E+00  0.00000E+00  0.00000E+00    0.28873E+02  0.13862E+02 -0.42735E+02  0.41547E+01  0.43544E+01 -0.75537E+01      982.00
  0.51974E+00  0.67753E+02    0.27500E+00  0.27500E+00 -0.55000E+00  0.00000E+00  0.00000E+00  0.00000E+00    0.29010E+02  0.13894E+02 -0.42905E+02  0.41768E+01  0.43079E+01 -0.75114E+01      982.00
  0.54349E+00  0.67977E+02    0.28750E+00  0.28750E+00 -0.57500E+00  0.00000E+00  0.00000E+00  0.00000E+00    0.29138E+02  0.13926E+02 -0.43064E+02  0.41984E+01  0.42614E+01 -0.74666E+01      982.00
  0.56725E+00  0.68199E+02    0.30000E+00  0.30000E+00 -0.60000E+00  0.00000E+00  0.00000E+00  0.00000E+00    0.29276E+02  0.13950E+02 -0.43226E+02  0.42228E+01  0.42029E+01 -0.74026E+01      982.00
  0.59102E+00  0.68392E+02    0.31250E+00  0.31250E+00 -0.62500E+00  0.00000E+00  0.00000E+00  0.00000E+00    0.29387E+02  0.13980E+02 -0.43366E+02  0.42421E+01  0.41561E+01 -0.73535E+01      982.00
  0.61479E+00  0.68568E+02    0.32500E+00  0.32500E+00 -0.65000E+00  0.00000E+00  0.00000E+00  0.00000E+00    0.29490E+02  0.14005E+02 -0.43495E+02  0.42634E+01  0.41159E+01 -0.73009E+01      982.00
  0.63858E+00  0.68732E+02    0.33750E+00  0.33750E+00 -0.67500E+00  0.00000E+00  0.00000E+00  0.00000E+00    0.29585E+02  0.14030E+02 -0.43615E+02  0.42802E+01  0.40720E+01 -0.72511E+01      982.00
  0.66238E+00  0.68881E+02    0.35000E+00  0.35000E+00 -0.70000E+00  0.00000E+00  0.00000E+00  0.00000E+00    0.29675E+02  0.14051E+02 -0.43726E+02  0.42957E+01  0.40287E+01 -0.71998E+01      982.00
  0.68618E+00  0.69020E+02    0.36250E+00  0.36250E+00 -0.72500E+00  0.00000E+00  0.00000E+00  0.00000E+00    0.29759E+02  0.14072E+02 -0.43831E+02  0.43098E+01  0.39857E+01 -0.71477E+01      982.00
  0.71000E+00  0.69151E+02    0.37500E+00  0.37500E+00 -0.75000E+00  0.00000E+00  0.00000E+00  0.00000E+00    0.29839E+02  0.14090E+02 -0.43929E+02  0.43235E+01  0.39443E+01 -0.70976E+01      982.00
  0.73382E+00  0.69272E+02    0.38750E+00  0.38750E+00 -0.77500E+00  0.00000E+00  0.00000E+00  0.00000E+00    0.29915E+02  0.14106E+02 -0.44021E+02  0.43351E+01  0.39031E+01 -0.70466E+01      982.00
  0.75765E+00  0.69377E+02    0.40000E+00  0.40000E+00 -0.80000E+00  0.00000E+00  0.00000E+00  0.00000E+00    0.29980E+02  0.14118E+02 -0.44097E+02  0.43478E+01  0.38765E+01 -0.70081E+01      982.00
  0.78149E+00  0.69480E+02    0.41250E+00  0.41250E+00 -0.82500E+00  0.00000E+00  0.00000E+00  0.00000E+00    0.30047E+02  0.14129E+02 -0.44176E+02  0.43563E+01  0.38374E+01 -0.69588E+01      982.00
  0.80533E+00  0.69578E+02    0.42500E+00  0.42500E+00 -0.85000E+00  0.00000E+00  0.00000E+00  0.00000E+00    0.30112E+02  0.14140E+02 -0.44252E+02  0.43662E+01  0.37986E+01 -0.69097E+01      982.00
  0.82918E+00  0.69667E+02    0.43750E+00  0.43750E+00 -0.87500E+00  0.00000E+00  0.00000E+00  0.00000E+00    0.30174E+02  0.14147E+02 -0.44321E+02  0.43744E+01  0.37603E+01 -0.68610E+01      982.00
  0.85304E+00  0.69753E+02    0.45000E+00  0.45000E+00 -0.90000E+00  0.00000E+00  0.00000E+00  0.00000E+00    0.30234E+02  0.14153E+02 -0.44387E+02  0.43822E+01  0.37234E+01 -0.68138E+01      982.00
  0.87690E+00  0.69776E+02    0.46250E+00  0.46250E+00 -0.92500E+00  0.00000E+00  0.00000E+00  0.00000E+00    0.30254E+02  0.14162E+02 -0.44415E+02  0.43681E+01  0.36767E+01 -0.67812E+01      982.00
  0.90077E+00  0.69794E+02    0.47500E+00  0.47500E+00 -0.95000E+00  0.00000E+00  0.00000E+00  0.00000E+00    0.30278E+02  0.14164E+02 -0.44442E+02  0.43611E+01  0.36275E+01 -0.67325E+01      982.00
  0.92465E+00  0.69811E+02    0.48750E+00  0.48750E+00 -0.97500E+00  0.00000E+00  0.00000E+00  0.00000E+00    0.30301E+02  0.14166E+02 -0.44467E+02  0.43540E+01  0.35793E+01 -0.66863E+01      982.00
  0.94853E+00  0.69825E+02    0.50000E+00  0.50000E+00 -0.10000E+01  0.00000E+00  0.00000E+00  0.00000E+00    0.30325E+02  0.14163E+02 -0.44488E+02  0.43478E+01  0.35289E+01 -0.66422E+01      982.00
