          Evm          Svm            E11          E22          E33          E23          E13          E12         SDEV11       SDEV22       SDEV33       SDEV23       SDEV13       SDEV12      TEMP
  0.00000E+00  0.61054E+02    0.00000E+00  0.00000E+00  0.00000E+00  0.00000E+00  0.00000E+00  0.00000E+00    0.16475E+02  0.19293E+02 -0.35767E+02  0.47070E+01 -0.52194E+01  0.15221E+02      982.00
  0.21968E-01  0.61132E+02    0.12500E-01  0.12500E-01 -0.25000E-01  0.00000E+00  0.00000E+00  0.00000E+00    0.16553E+02  0.19421E+02 -0.35974E+02  0.48616E+01 -0.52988E+01  0.14876E+02      982.00
  0.44036E-01  0.61219E+02    0.25000E-01  0.25000E-01 -0.50000E-01  0.00000E+00  0.00000E+00  0.00000E+00    0.16645E+02  0.19535E+02 -0.36180E+02  0.49496E+01 -0.53125E+01  0.14584E+02      982.00
  0.66199E-01  0.61338E+02    0.37500E-01  0.37500E-01 -0.75000E-01  0.00000E+00  0.00000E+00  0.00000E+00    0.16733E+02  0.19663E+02 -0.36396E+02  0.50080E+01 -0.52974E+01  0.14330E+02      982.00
  0.88450E-01  0.61478E+02    0.50000E-01  0.50000E-01 -0.10000E+00  0.00000E+00  0.00000E+00  0.00000E+00    0.16813E+02  0.19798E+02 -0.36610E+02  0.50352E+01 -0.52574E+01  0.14120E+02      982.00
  0.11078E+00  0.61638E+02    0.62500E-01  0.62500E-01 -0.12500E+00  0.00000E+00  0.00000E+00  0.00000E+00    0.16888E+02  0.19936E+02 -0.36824E+02  0.50376E+01 -0.52014E+01  0.13952E+02      982.00
  0.13318E+00  0.61844E+02    0.75000E-01  0.75000E-01 -0.15000E+00  0.00000E+00  0.00000E+00  0.00000E+00    0.16975E+02  0.20078E+02 -0.37052E+02  0.50183E+01 -0.51360E+01  0.13830E+02      982.00
  0.15565E+00  0.62063E+02    0.87500E-01  0.87500E-01 -0.17500E+00  0.00000E+00  0.00000E+00  0.00000E+00    0.17058E+02  0.20218E+02 -0.37276E+02  0.49909E+01 -0.50685E+01  0.13737E+02      982.00
  0.17817E+00  0.62318E+02    0.10000E+00  0.10000E+00 -0.20000E+00  0.00000E+00  0.00000E+00  0.00000E+00    0.17157E+02  0.20356E+02 -0.37513E+02  0.49563E+01 -0.50040E+01  0.13673E+02      982.00
  0.20075E+00  0.62588E+02    0.11250E+00  0.11250E+00 -0.22500E+00  0.00000E+00  0.00000E+00  0.00000E+00    0.17263E+02  0.20487E+02 -0.37750E+02  0.49205E+01 -0.49446E+01  0.13627E+02      982.00
  0.22337E+00  0.62870E+02    0.12500E+00  0.12500E+00 -0.25000E+00  0.00000E+00  0.00000E+00  0.00000E+00    0.17374E+02  0.20613E+02 -0.37988E+02  0.48858E+01 -0.48915E+01  0.13595E+02      982.00
  0.24602E+00  0.63160E+02    0.13750E+00  0.13750E+00 -0.27500E+00  0.00000E+00  0.00000E+00  0.00000E+00    0.17491E+02  0.20733E+02 -0.38224E+02  0.48534E+01 -0.48450E+01  0.13573E+02      982.00
  0.26872E+00  0.63464E+02    0.15000E+00  0.15000E+00 -0.30000E+00  0.00000E+00  0.00000E+00  0.00000E+00    0.17616E+02  0.20848E+02 -0.38464E+02  0.48219E+01 -0.48016E+01  0.13566E+02      982.00
  0.29145E+00  0.63757E+02    0.16250E+00  0.16250E+00 -0.32500E+00  0.00000E+00  0.00000E+00  0.00000E+00    0.17741E+02  0.20953E+02 -0.38694E+02  0.47950E+01 -0.47677E+01  0.13556E+02      982.00
  0.31421E+00  0.64046E+02    0.17500E+00  0.17500E+00 -0.35000E+00  0.00000E+00  0.00000E+00  0.00000E+00    0.17869E+02  0.21050E+02 -0.38919E+02  0.47710E+01 -0.47396E+01  0.13548E+02      982.00
  0.33699E+00  0.64328E+02    0.18750E+00  0.18750E+00 -0.37500E+00  0.00000E+00  0.00000E+00  0.00000E+00    0.17998E+02  0.21139E+02 -0.39137E+02  0.47490E+01 -0.47160E+01  0.13540E+02      982.00
  0.35981E+00  0.64602E+02    0.20000E+00  0.20000E+00 -0.40000E+00  0.00000E+00  0.00000E+00  0.00000E+00    0.18126E+02  0.21221E+02 -0.39348E+02  0.47284E+01 -0.46961E+01  0.13533E+02      982.00
  0.38265E+00  0.64865E+02    0.21250E+00  0.21250E+00 -0.42500E+00  0.00000E+00  0.00000E+00  0.00000E+00    0.18254E+02  0.21297E+02 -0.39551E+02  0.47086E+01 -0.46788E+01  0.13524E+02      982.00
  0.40551E+00  0.65116E+02    0.22500E+00  0.22500E+00 -0.45000E+00  0.00000E+00  0.00000E+00  0.00000E+00    0.18380E+02  0.21365E+02 -0.39745E+02  0.46891E+01 -0.46637E+01  0.13515E+02      982.00
  0.42840E+00  0.65356E+02    0.23750E+00  0.23750E+00 -0.47500E+00  0.00000E+00  0.00000E+00  0.00000E+00    0.18503E+02  0.21427E+02 -0.39930E+02  0.46696E+01 -0.46499E+01  0.13505E+02      982.00
  0.45131E+00  0.65582E+02    0.25000E+00  0.25000E+00 -0.50000E+00  0.00000E+00  0.00000E+00  0.00000E+00    0.18623E+02  0.21483E+02 -0.40107E+02  0.46497E+01 -0.46370E+01  0.13494E+02      982.00
  0.47425E+00  0.65795E+02    0.26250E+00  0.26250E+00 -0.52500E+00  0.00000E+00  0.00000E+00  0.00000E+00    0.18740E+02  0.21534E+02 -0.40274E+02  0.46293E+01 -0.46247E+01  0.13482E+02      982.00
  0.49720E+00  0.65995E+02    0.27500E+00  0.27500E+00 -0.55000E+00  0.00000E+00  0.00000E+00  0.00000E+00    0.18853E+02  0.21579E+02 -0.40431E+02  0.46083E+01 -0.46126E+01  0.13468E+02      982.00
  0.52018E+00  0.66182E+02    0.28750E+00  0.28750E+00 -0.57500E+00  0.00000E+00  0.00000E+00  0.00000E+00    0.18961E+02  0.21619E+02 -0.40580E+02  0.45866E+01 -0.46005E+01  0.13454E+02      982.00
  0.54317E+00  0.66357E+02    0.30000E+00  0.30000E+00 -0.60000E+00  0.00000E+00  0.00000E+00  0.00000E+00    0.19065E+02  0.21655E+02 -0.40720E+02  0.45644E+01 -0.45883E+01  0.13439E+02      982.00
  0.56618E+00  0.66520E+02    0.31250E+00  0.31250E+00 -0.62500E+00  0.00000E+00  0.00000E+00  0.00000E+00    0.19165E+02  0.21686E+02 -0.40851E+02  0.45416E+01 -0.45759E+01  0.13423E+02      982.00
  0.58921E+00  0.66671E+02    0.32500E+00  0.32500E+00 -0.65000E+00  0.00000E+00  0.00000E+00  0.00000E+00    0.19260E+02  0.21714E+02 -0.40975E+02  0.45184E+01 -0.45633E+01  0.13407E+02      982.00
  0.61226E+00  0.66812E+02    0.33750E+00  0.33750E+00 -0.67500E+00  0.00000E+00  0.00000E+00  0.00000E+00    0.19351E+02  0.21739E+02 -0.41090E+02  0.44948E+01 -0.45504E+01  0.13391E+02      982.00
  0.63532E+00  0.66942E+02    0.35000E+00  0.35000E+00 -0.70000E+00  0.00000E+00  0.00000E+00  0.00000E+00    0.19437E+02  0.21761E+02 -0.41198E+02  0.44711E+01 -0.45373E+01  0.13374E+02      982.00
  0.65840E+00  0.67063E+02    0.36250E+00  0.36250E+00 -0.72500E+00  0.00000E+00  0.00000E+00  0.00000E+00    0.19519E+02  0.21780E+02 -0.41299E+02  0.44474E+01 -0.45241E+01  0.13358E+02      982.00
  0.68149E+00  0.67176E+02    0.37500E+00  0.37500E+00 -0.75000E+00  0.00000E+00  0.00000E+00  0.00000E+00    0.19597E+02  0.21797E+02 -0.41394E+02  0.44238E+01 -0.45108E+01  0.13342E+02      982.00
  0.70460E+00  0.67283E+02    0.38750E+00  0.38750E+00 -0.77500E+00  0.00000E+00  0.00000E+00  0.00000E+00    0.19680E+02  0.21804E+02 -0.41484E+02  0.43949E+01 -0.44935E+01  0.13328E+02      982.00
  0.72772E+00  0.67377E+02    0.40000E+00  0.40000E+00 -0.80000E+00  0.00000E+00  0.00000E+00  0.00000E+00    0.19741E+02  0.21823E+02 -0.41564E+02  0.43766E+01 -0.44839E+01  0.13310E+02      982.00
  0.75085E+00  0.67468E+02    0.41250E+00  0.41250E+00 -0.82500E+00  0.00000E+00  0.00000E+00  0.00000E+00    0.19815E+02  0.21828E+02 -0.41643E+02  0.43482E+01 -0.44664E+01  0.13298E+02      982.00
  0.77400E+00  0.67545E+02    0.42500E+00  0.42500E+00 -0.85000E+00  0.00000E+00  0.00000E+00  0.00000E+00    0.19871E+02  0.21836E+02 -0.41707E+02  0.43295E+01 -0.44581E+01  0.13287E+02      982.00
  0.79716E+00  0.67622E+02    0.43750E+00  0.43750E+00 -0.87500E+00  0.00000E+00  0.00000E+00  0.00000E+00    0.19929E+02  0.21846E+02 -0.41775E+02  0.43074E+01 -0.44448E+01  0.13273E+02      982.00
  0.82032E+00  0.67694E+02    0.45000E+00  0.45000E+00 -0.90000E+00  0.00000E+00  0.00000E+00  0.00000E+00    0.19984E+02  0.21854E+02 -0.41838E+02  0.42858E+01 -0.44317E+01  0.13259E+02      982.00
  0.84350E+00  0.67761E+02    0.46250E+00  0.46250E+00 -0.92500E+00  0.00000E+00  0.00000E+00  0.00000E+00    0.20036E+02  0.21862E+02 -0.41897E+02  0.42648E+01 -0.44189E+01  0.13246E+02      982.00
  0.86669E+00  0.67824E+02    0.47500E+00  0.47500E+00 -0.95000E+00  0.00000E+00  0.00000E+00  0.00000E+00    0.20085E+02  0.21868E+02 -0.41953E+02  0.42446E+01 -0.44065E+01  0.13233E+02      982.00
  0.88988E+00  0.67882E+02    0.48750E+00  0.48750E+00 -0.97500E+00  0.00000E+00  0.00000E+00  0.00000E+00    0.20131E+02  0.21874E+02 -0.42004E+02  0.42252E+01 -0.43944E+01  0.13220E+02      982.00
  0.91309E+00  0.67936E+02    0.50000E+00  0.50000E+00 -0.10000E+01  0.00000E+00  0.00000E+00  0.00000E+00    0.20174E+02  0.21879E+02 -0.42053E+02  0.42066E+01 -0.43828E+01  0.13209E+02      982.00
