          Evm          Svm            E11          E22          E33          E23          E13          E12         SDEV11       SDEV22       SDEV33       SDEV23       SDEV13       SDEV12      TEMP
  0.00000E+00  0.67351E+02    0.00000E+00  0.00000E+00  0.00000E+00  0.00000E+00  0.00000E+00  0.00000E+00    0.22348E+02  0.22115E+02 -0.44463E+02  0.22199E+01 -0.43020E+01 -0.24261E+01      982.00
  0.24756E-01  0.67057E+02    0.12500E-01  0.12500E-01 -0.25000E-01  0.00000E+00  0.00000E+00  0.00000E+00    0.22036E+02  0.22223E+02 -0.44259E+02  0.22943E+01 -0.44011E+01 -0.22485E+01      982.00
  0.49507E-01  0.66821E+02    0.25000E-01  0.25000E-01 -0.50000E-01  0.00000E+00  0.00000E+00  0.00000E+00    0.21741E+02  0.22352E+02 -0.44093E+02  0.23618E+01 -0.45130E+01 -0.20359E+01      982.00
  0.74253E-01  0.66700E+02    0.37500E-01  0.37500E-01 -0.75000E-01  0.00000E+00  0.00000E+00  0.00000E+00    0.21440E+02  0.22563E+02 -0.44003E+02  0.24290E+01 -0.46266E+01 -0.17742E+01      982.00
  0.98992E-01  0.66678E+02    0.50000E-01  0.50000E-01 -0.10000E+00  0.00000E+00  0.00000E+00  0.00000E+00    0.21121E+02  0.22856E+02 -0.43976E+02  0.24939E+01 -0.47329E+01 -0.14648E+01      982.00
  0.12372E+00  0.66748E+02    0.62500E-01  0.62500E-01 -0.12500E+00  0.00000E+00  0.00000E+00  0.00000E+00    0.20793E+02  0.23215E+02 -0.44008E+02  0.25541E+01 -0.48295E+01 -0.11200E+01      982.00
  0.14845E+00  0.66907E+02    0.75000E-01  0.75000E-01 -0.15000E+00  0.00000E+00  0.00000E+00  0.00000E+00    0.20465E+02  0.23628E+02 -0.44093E+02  0.26087E+01 -0.49168E+01 -0.75330E+00      982.00
  0.17316E+00  0.67118E+02    0.87500E-01  0.87500E-01 -0.17500E+00  0.00000E+00  0.00000E+00  0.00000E+00    0.20140E+02  0.24066E+02 -0.44206E+02  0.26570E+01 -0.49950E+01 -0.37945E+00      982.00
  0.19786E+00  0.67374E+02    0.10000E+00  0.10000E+00 -0.20000E+00  0.00000E+00  0.00000E+00  0.00000E+00    0.19821E+02  0.24521E+02 -0.44342E+02  0.26982E+01 -0.50583E+01 -0.99672E-02      982.00
  0.22254E+00  0.67640E+02    0.11250E+00  0.11250E+00 -0.22500E+00  0.00000E+00  0.00000E+00  0.00000E+00    0.19527E+02  0.24953E+02 -0.44481E+02  0.27334E+01 -0.51207E+01  0.33683E+00      982.00
  0.24720E+00  0.67911E+02    0.12500E+00  0.12500E+00 -0.25000E+00  0.00000E+00  0.00000E+00  0.00000E+00    0.19247E+02  0.25372E+02 -0.44619E+02  0.27614E+01 -0.51694E+01  0.66304E+00      982.00
  0.27184E+00  0.68165E+02    0.13750E+00  0.13750E+00 -0.27500E+00  0.00000E+00  0.00000E+00  0.00000E+00    0.19003E+02  0.25742E+02 -0.44745E+02  0.27843E+01 -0.52199E+01  0.95362E+00      982.00
  0.29646E+00  0.68403E+02    0.15000E+00  0.15000E+00 -0.30000E+00  0.00000E+00  0.00000E+00  0.00000E+00    0.18768E+02  0.26091E+02 -0.44860E+02  0.28001E+01 -0.52566E+01  0.12258E+01      982.00
  0.32105E+00  0.68610E+02    0.16250E+00  0.16250E+00 -0.32500E+00  0.00000E+00  0.00000E+00  0.00000E+00    0.18571E+02  0.26385E+02 -0.44956E+02  0.28126E+01 -0.52927E+01  0.14621E+01      982.00
  0.34562E+00  0.68788E+02    0.17500E+00  0.17500E+00 -0.35000E+00  0.00000E+00  0.00000E+00  0.00000E+00    0.18374E+02  0.26660E+02 -0.45034E+02  0.28174E+01 -0.53144E+01  0.16907E+01      982.00
  0.37017E+00  0.68935E+02    0.18750E+00  0.18750E+00 -0.37500E+00  0.00000E+00  0.00000E+00  0.00000E+00    0.18229E+02  0.26870E+02 -0.45099E+02  0.28257E+01 -0.53317E+01  0.18719E+01      982.00
  0.39470E+00  0.69065E+02    0.20000E+00  0.20000E+00 -0.40000E+00  0.00000E+00  0.00000E+00  0.00000E+00    0.18088E+02  0.27065E+02 -0.45152E+02  0.28307E+01 -0.53454E+01  0.20525E+01      982.00
  0.41922E+00  0.69167E+02    0.21250E+00  0.21250E+00 -0.42500E+00  0.00000E+00  0.00000E+00  0.00000E+00    0.17959E+02  0.27231E+02 -0.45189E+02  0.28361E+01 -0.53540E+01  0.22211E+01      982.00
  0.44372E+00  0.69256E+02    0.22500E+00  0.22500E+00 -0.45000E+00  0.00000E+00  0.00000E+00  0.00000E+00    0.17847E+02  0.27374E+02 -0.45220E+02  0.28434E+01 -0.53583E+01  0.23783E+01      982.00
  0.46821E+00  0.69317E+02    0.23750E+00  0.23750E+00 -0.47500E+00  0.00000E+00  0.00000E+00  0.00000E+00    0.17746E+02  0.27489E+02 -0.45235E+02  0.28530E+01 -0.53595E+01  0.25258E+01      982.00
  0.49268E+00  0.69363E+02    0.25000E+00  0.25000E+00 -0.50000E+00  0.00000E+00  0.00000E+00  0.00000E+00    0.17659E+02  0.27582E+02 -0.45241E+02  0.28659E+01 -0.53603E+01  0.26655E+01      982.00
  0.51714E+00  0.69393E+02    0.26250E+00  0.26250E+00 -0.52500E+00  0.00000E+00  0.00000E+00  0.00000E+00    0.17582E+02  0.27657E+02 -0.45239E+02  0.28778E+01 -0.53499E+01  0.28093E+01      982.00
  0.54158E+00  0.69410E+02    0.27500E+00  0.27500E+00 -0.55000E+00  0.00000E+00  0.00000E+00  0.00000E+00    0.17533E+02  0.27700E+02 -0.45232E+02  0.28979E+01 -0.53590E+01  0.29153E+01      982.00
  0.56602E+00  0.69428E+02    0.28750E+00  0.28750E+00 -0.57500E+00  0.00000E+00  0.00000E+00  0.00000E+00    0.17484E+02  0.27740E+02 -0.45224E+02  0.29236E+01 -0.53662E+01  0.30371E+01      982.00
  0.59045E+00  0.69435E+02    0.30000E+00  0.30000E+00 -0.60000E+00  0.00000E+00  0.00000E+00  0.00000E+00    0.17446E+02  0.27763E+02 -0.45209E+02  0.29522E+01 -0.53761E+01  0.31537E+01      982.00
  0.61486E+00  0.69414E+02    0.31250E+00  0.31250E+00 -0.62500E+00  0.00000E+00  0.00000E+00  0.00000E+00    0.17419E+02  0.27759E+02 -0.45177E+02  0.29875E+01 -0.53795E+01  0.32849E+01      982.00
  0.63927E+00  0.69417E+02    0.32500E+00  0.32500E+00 -0.65000E+00  0.00000E+00  0.00000E+00  0.00000E+00    0.17405E+02  0.27757E+02 -0.45162E+02  0.30231E+01 -0.53967E+01  0.33945E+01      982.00
  0.66367E+00  0.69401E+02    0.33750E+00  0.33750E+00 -0.67500E+00  0.00000E+00  0.00000E+00  0.00000E+00    0.17394E+02  0.27739E+02 -0.45134E+02  0.30621E+01 -0.54168E+01  0.35008E+01      982.00
  0.68805E+00  0.69386E+02    0.35000E+00  0.35000E+00 -0.70000E+00  0.00000E+00  0.00000E+00  0.00000E+00    0.17393E+02  0.27713E+02 -0.45107E+02  0.31033E+01 -0.54399E+01  0.36051E+01      982.00
  0.71243E+00  0.69374E+02    0.36250E+00  0.36250E+00 -0.72500E+00  0.00000E+00  0.00000E+00  0.00000E+00    0.17401E+02  0.27682E+02 -0.45082E+02  0.31455E+01 -0.54633E+01  0.37074E+01      982.00
  0.73680E+00  0.69354E+02    0.37500E+00  0.37500E+00 -0.75000E+00  0.00000E+00  0.00000E+00  0.00000E+00    0.17413E+02  0.27641E+02 -0.45054E+02  0.31884E+01 -0.54882E+01  0.38079E+01      982.00
  0.76116E+00  0.69327E+02    0.38750E+00  0.38750E+00 -0.77500E+00  0.00000E+00  0.00000E+00  0.00000E+00    0.17429E+02  0.27592E+02 -0.45021E+02  0.32314E+01 -0.55140E+01  0.39072E+01      982.00
  0.78551E+00  0.69304E+02    0.40000E+00  0.40000E+00 -0.80000E+00  0.00000E+00  0.00000E+00  0.00000E+00    0.17452E+02  0.27539E+02 -0.44991E+02  0.32752E+01 -0.55390E+01  0.40056E+01      982.00
  0.80986E+00  0.69278E+02    0.41250E+00  0.41250E+00 -0.82500E+00  0.00000E+00  0.00000E+00  0.00000E+00    0.17484E+02  0.27477E+02 -0.44961E+02  0.33122E+01 -0.55604E+01  0.41042E+01      982.00
  0.83420E+00  0.69252E+02    0.42500E+00  0.42500E+00 -0.85000E+00  0.00000E+00  0.00000E+00  0.00000E+00    0.17517E+02  0.27413E+02 -0.44930E+02  0.33543E+01 -0.55850E+01  0.42004E+01      982.00
  0.85853E+00  0.69222E+02    0.43750E+00  0.43750E+00 -0.87500E+00  0.00000E+00  0.00000E+00  0.00000E+00    0.17552E+02  0.27345E+02 -0.44897E+02  0.33968E+01 -0.56082E+01  0.42944E+01      982.00
  0.88285E+00  0.69117E+02    0.45000E+00  0.45000E+00 -0.90000E+00  0.00000E+00  0.00000E+00  0.00000E+00    0.17574E+02  0.27252E+02 -0.44826E+02  0.33969E+01 -0.55762E+01  0.43912E+01      982.00
  0.90717E+00  0.69018E+02    0.46250E+00  0.46250E+00 -0.92500E+00  0.00000E+00  0.00000E+00  0.00000E+00    0.17601E+02  0.27156E+02 -0.44756E+02  0.34108E+01 -0.55618E+01  0.44820E+01      982.00
  0.93149E+00  0.68926E+02    0.47500E+00  0.47500E+00 -0.95000E+00  0.00000E+00  0.00000E+00  0.00000E+00    0.17631E+02  0.27060E+02 -0.44691E+02  0.34279E+01 -0.55479E+01  0.45701E+01      982.00
  0.95580E+00  0.68838E+02    0.48750E+00  0.48750E+00 -0.97500E+00  0.00000E+00  0.00000E+00  0.00000E+00    0.17640E+02  0.26984E+02 -0.44624E+02  0.34525E+01 -0.55531E+01  0.46378E+01      982.00
  0.98011E+00  0.68757E+02    0.50000E+00  0.50000E+00 -0.10000E+01  0.00000E+00  0.00000E+00  0.00000E+00    0.17677E+02  0.26888E+02 -0.44566E+02  0.34713E+01 -0.55412E+01  0.47221E+01      982.00
