          Evm          Svm            E11          E22          E33          E23          E13          E12         SDEV11       SDEV22       SDEV33       SDEV23       SDEV13       SDEV12      TEMP
  0.00000E+00  0.62292E+02    0.00000E+00  0.00000E+00  0.00000E+00  0.00000E+00  0.00000E+00  0.00000E+00    0.22379E+02  0.17965E+02 -0.40344E+02 -0.69355E+01  0.39228E+01  0.20836E+01      982.00
  0.24287E-01  0.62058E+02    0.12500E-01  0.12500E-01 -0.25000E-01  0.00000E+00  0.00000E+00  0.00000E+00    0.22665E+02  0.17566E+02 -0.40231E+02 -0.66174E+01  0.38331E+01  0.21994E+01      982.00
  0.48598E-01  0.61835E+02    0.25000E-01  0.25000E-01 -0.50000E-01  0.00000E+00  0.00000E+00  0.00000E+00    0.22979E+02  0.17144E+02 -0.40123E+02 -0.62708E+01  0.37134E+01  0.23458E+01      982.00
  0.72931E-01  0.61618E+02    0.37500E-01  0.37500E-01 -0.75000E-01  0.00000E+00  0.00000E+00  0.00000E+00    0.23299E+02  0.16716E+02 -0.40016E+02 -0.58989E+01  0.35789E+01  0.24969E+01      982.00
  0.97283E-01  0.61429E+02    0.50000E-01  0.50000E-01 -0.10000E+00  0.00000E+00  0.00000E+00  0.00000E+00    0.23602E+02  0.16317E+02 -0.39918E+02 -0.55415E+01  0.34380E+01  0.26326E+01      982.00
  0.12165E+00  0.61302E+02    0.62500E-01  0.62500E-01 -0.12500E+00  0.00000E+00  0.00000E+00  0.00000E+00    0.23881E+02  0.15972E+02 -0.39853E+02 -0.52314E+01  0.33065E+01  0.27437E+01      982.00
  0.14603E+00  0.61290E+02    0.75000E-01  0.75000E-01 -0.15000E+00  0.00000E+00  0.00000E+00  0.00000E+00    0.24156E+02  0.15698E+02 -0.39854E+02 -0.49782E+01  0.31992E+01  0.28274E+01      982.00
  0.17042E+00  0.61389E+02    0.87500E-01  0.87500E-01 -0.17500E+00  0.00000E+00  0.00000E+00  0.00000E+00    0.24423E+02  0.15499E+02 -0.39922E+02 -0.47903E+01  0.31192E+01  0.28817E+01      982.00
  0.19480E+00  0.61596E+02    0.10000E+00  0.10000E+00 -0.20000E+00  0.00000E+00  0.00000E+00  0.00000E+00    0.24692E+02  0.15363E+02 -0.40055E+02 -0.46629E+01  0.30639E+01  0.29120E+01      982.00
  0.21919E+00  0.61881E+02    0.11250E+00  0.11250E+00 -0.22500E+00  0.00000E+00  0.00000E+00  0.00000E+00    0.24967E+02  0.15272E+02 -0.40239E+02 -0.45688E+01  0.30315E+01  0.29191E+01      982.00
  0.24357E+00  0.62230E+02    0.12500E+00  0.12500E+00 -0.25000E+00  0.00000E+00  0.00000E+00  0.00000E+00    0.25240E+02  0.15220E+02 -0.40460E+02 -0.45201E+01  0.30170E+01  0.29117E+01      982.00
  0.26795E+00  0.62588E+02    0.13750E+00  0.13750E+00 -0.27500E+00  0.00000E+00  0.00000E+00  0.00000E+00    0.25494E+02  0.15194E+02 -0.40688E+02 -0.44906E+01  0.30114E+01  0.28916E+01      982.00
  0.29233E+00  0.62977E+02    0.15000E+00  0.15000E+00 -0.30000E+00  0.00000E+00  0.00000E+00  0.00000E+00    0.25750E+02  0.15185E+02 -0.40935E+02 -0.44831E+01  0.30160E+01  0.28610E+01      982.00
  0.31671E+00  0.63360E+02    0.16250E+00  0.16250E+00 -0.32500E+00  0.00000E+00  0.00000E+00  0.00000E+00    0.25992E+02  0.15186E+02 -0.41178E+02 -0.44858E+01  0.30242E+01  0.28215E+01      982.00
  0.34108E+00  0.63728E+02    0.17500E+00  0.17500E+00 -0.35000E+00  0.00000E+00  0.00000E+00  0.00000E+00    0.26223E+02  0.15189E+02 -0.41412E+02 -0.44944E+01  0.30399E+01  0.27716E+01      982.00
  0.36545E+00  0.64082E+02    0.18750E+00  0.18750E+00 -0.37500E+00  0.00000E+00  0.00000E+00  0.00000E+00    0.26436E+02  0.15201E+02 -0.41637E+02 -0.45126E+01  0.30529E+01  0.27210E+01      982.00
  0.38981E+00  0.64411E+02    0.20000E+00  0.20000E+00 -0.40000E+00  0.00000E+00  0.00000E+00  0.00000E+00    0.26639E+02  0.15205E+02 -0.41844E+02 -0.45329E+01  0.30692E+01  0.26592E+01      982.00
  0.41417E+00  0.64723E+02    0.21250E+00  0.21250E+00 -0.42500E+00  0.00000E+00  0.00000E+00  0.00000E+00    0.26823E+02  0.15220E+02 -0.42043E+02 -0.45549E+01  0.30806E+01  0.26032E+01      982.00
  0.43853E+00  0.65005E+02    0.22500E+00  0.22500E+00 -0.45000E+00  0.00000E+00  0.00000E+00  0.00000E+00    0.26989E+02  0.15233E+02 -0.42222E+02 -0.45791E+01  0.30898E+01  0.25453E+01      982.00
  0.46289E+00  0.65270E+02    0.23750E+00  0.23750E+00 -0.47500E+00  0.00000E+00  0.00000E+00  0.00000E+00    0.27144E+02  0.15246E+02 -0.42391E+02 -0.46031E+01  0.30967E+01  0.24868E+01      982.00
  0.48724E+00  0.65508E+02    0.25000E+00  0.25000E+00 -0.50000E+00  0.00000E+00  0.00000E+00  0.00000E+00    0.27286E+02  0.15255E+02 -0.42541E+02 -0.46273E+01  0.31020E+01  0.24269E+01      982.00
  0.51160E+00  0.65728E+02    0.26250E+00  0.26250E+00 -0.52500E+00  0.00000E+00  0.00000E+00  0.00000E+00    0.27426E+02  0.15254E+02 -0.42680E+02 -0.46527E+01  0.31093E+01  0.23553E+01      982.00
  0.53595E+00  0.65905E+02    0.27500E+00  0.27500E+00 -0.55000E+00  0.00000E+00  0.00000E+00  0.00000E+00    0.27532E+02  0.15260E+02 -0.42792E+02 -0.46710E+01  0.31152E+01  0.23045E+01      982.00
  0.56030E+00  0.66088E+02    0.28750E+00  0.28750E+00 -0.57500E+00  0.00000E+00  0.00000E+00  0.00000E+00    0.27642E+02  0.15266E+02 -0.42908E+02 -0.46937E+01  0.31152E+01  0.22456E+01      982.00
  0.58464E+00  0.66259E+02    0.30000E+00  0.30000E+00 -0.60000E+00  0.00000E+00  0.00000E+00  0.00000E+00    0.27746E+02  0.15270E+02 -0.43016E+02 -0.47156E+01  0.31136E+01  0.21868E+01      982.00
  0.60899E+00  0.66427E+02    0.31250E+00  0.31250E+00 -0.62500E+00  0.00000E+00  0.00000E+00  0.00000E+00    0.27858E+02  0.15262E+02 -0.43120E+02 -0.47456E+01  0.31174E+01  0.21084E+01      982.00
  0.63333E+00  0.66563E+02    0.32500E+00  0.32500E+00 -0.65000E+00  0.00000E+00  0.00000E+00  0.00000E+00    0.27943E+02  0.15263E+02 -0.43206E+02 -0.47658E+01  0.31147E+01  0.20506E+01      982.00
  0.65767E+00  0.66696E+02    0.33750E+00  0.33750E+00 -0.67500E+00  0.00000E+00  0.00000E+00  0.00000E+00    0.28025E+02  0.15265E+02 -0.43290E+02 -0.47855E+01  0.31102E+01  0.19941E+01      982.00
  0.68201E+00  0.66811E+02    0.35000E+00  0.35000E+00 -0.70000E+00  0.00000E+00  0.00000E+00  0.00000E+00    0.28100E+02  0.15263E+02 -0.43362E+02 -0.48056E+01  0.31048E+01  0.19375E+01      982.00
  0.70635E+00  0.66920E+02    0.36250E+00  0.36250E+00 -0.72500E+00  0.00000E+00  0.00000E+00  0.00000E+00    0.28169E+02  0.15262E+02 -0.43431E+02 -0.48262E+01  0.30986E+01  0.18820E+01      982.00
  0.73069E+00  0.67016E+02    0.37500E+00  0.37500E+00 -0.75000E+00  0.00000E+00  0.00000E+00  0.00000E+00    0.28233E+02  0.15258E+02 -0.43491E+02 -0.48460E+01  0.30913E+01  0.18271E+01      982.00
  0.75502E+00  0.67113E+02    0.38750E+00  0.38750E+00 -0.77500E+00  0.00000E+00  0.00000E+00  0.00000E+00    0.28295E+02  0.15256E+02 -0.43551E+02 -0.48661E+01  0.30837E+01  0.17731E+01      982.00
  0.77936E+00  0.67194E+02    0.40000E+00  0.40000E+00 -0.80000E+00  0.00000E+00  0.00000E+00  0.00000E+00    0.28351E+02  0.15250E+02 -0.43601E+02 -0.48847E+01  0.30761E+01  0.17192E+01      982.00
  0.80369E+00  0.67268E+02    0.41250E+00  0.41250E+00 -0.82500E+00  0.00000E+00  0.00000E+00  0.00000E+00    0.28412E+02  0.15231E+02 -0.43644E+02 -0.49107E+01  0.30760E+01  0.16508E+01      982.00
  0.82802E+00  0.67341E+02    0.42500E+00  0.42500E+00 -0.85000E+00  0.00000E+00  0.00000E+00  0.00000E+00    0.28462E+02  0.15228E+02 -0.43689E+02 -0.49298E+01  0.30676E+01  0.15988E+01      982.00
  0.85235E+00  0.67404E+02    0.43750E+00  0.43750E+00 -0.87500E+00  0.00000E+00  0.00000E+00  0.00000E+00    0.28507E+02  0.15221E+02 -0.43728E+02 -0.49492E+01  0.30586E+01  0.15472E+01      982.00
  0.87668E+00  0.67407E+02    0.45000E+00  0.45000E+00 -0.90000E+00  0.00000E+00  0.00000E+00  0.00000E+00    0.28532E+02  0.15206E+02 -0.43739E+02 -0.49065E+01  0.30041E+01  0.15164E+01      982.00
  0.90101E+00  0.67397E+02    0.46250E+00  0.46250E+00 -0.92500E+00  0.00000E+00  0.00000E+00  0.00000E+00    0.28536E+02  0.15198E+02 -0.43733E+02 -0.49005E+01  0.29870E+01  0.14932E+01      982.00
  0.92535E+00  0.67395E+02    0.47500E+00  0.47500E+00 -0.95000E+00  0.00000E+00  0.00000E+00  0.00000E+00    0.28547E+02  0.15187E+02 -0.43734E+02 -0.49015E+01  0.29678E+01  0.14535E+01      982.00
  0.94968E+00  0.67395E+02    0.48750E+00  0.48750E+00 -0.97500E+00  0.00000E+00  0.00000E+00  0.00000E+00    0.28582E+02  0.15152E+02 -0.43734E+02 -0.48898E+01  0.29330E+01  0.13883E+01      982.00
  0.97401E+00  0.67391E+02    0.50000E+00  0.50000E+00 -0.10000E+01  0.00000E+00  0.00000E+00  0.00000E+00    0.28578E+02  0.15155E+02 -0.43733E+02 -0.48958E+01  0.29209E+01  0.13637E+01      982.00
