          Evm          Svm            E11          E22          E33          E23          E13          E12         SDEV11       SDEV22       SDEV33       SDEV23       SDEV13       SDEV12      TEMP
  0.00000E+00  0.60820E+02    0.00000E+00  0.00000E+00  0.00000E+00  0.00000E+00  0.00000E+00  0.00000E+00    0.18209E+02  0.22161E+02 -0.40370E+02 -0.21065E+01 -0.14692E+01  0.44522E+00      982.00
  0.24891E-01  0.60853E+02    0.12500E-01  0.12500E-01 -0.25000E-01  0.00000E+00  0.00000E+00  0.00000E+00    0.18678E+02  0.21710E+02 -0.40388E+02 -0.22352E+01 -0.18139E+01  0.58794E+00      982.00
  0.49780E-01  0.61032E+02    0.25000E-01  0.25000E-01 -0.50000E-01  0.00000E+00  0.00000E+00  0.00000E+00    0.19394E+02  0.21099E+02 -0.40493E+02 -0.23576E+01 -0.22481E+01  0.72250E+00      982.00
  0.74661E-01  0.61284E+02    0.37500E-01  0.37500E-01 -0.75000E-01  0.00000E+00  0.00000E+00  0.00000E+00    0.20272E+02  0.20353E+02 -0.40625E+02 -0.24414E+01 -0.27308E+01  0.81611E+00      982.00
  0.99520E-01  0.61493E+02    0.50000E-01  0.50000E-01 -0.10000E+00  0.00000E+00  0.00000E+00  0.00000E+00    0.21085E+02  0.19640E+02 -0.40724E+02 -0.24417E+01 -0.30797E+01  0.78972E+00      982.00
  0.12435E+00  0.61618E+02    0.62500E-01  0.62500E-01 -0.12500E+00  0.00000E+00  0.00000E+00  0.00000E+00    0.21704E+02  0.19079E+02 -0.40783E+02 -0.23780E+01 -0.32228E+01  0.63889E+00      982.00
  0.14917E+00  0.61684E+02    0.75000E-01  0.75000E-01 -0.15000E+00  0.00000E+00  0.00000E+00  0.00000E+00    0.22131E+02  0.18688E+02 -0.40819E+02 -0.22940E+01 -0.32012E+01  0.38634E+00      982.00
  0.17399E+00  0.61724E+02    0.87500E-01  0.87500E-01 -0.17500E+00  0.00000E+00  0.00000E+00  0.00000E+00    0.22391E+02  0.18461E+02 -0.40852E+02 -0.22199E+01 -0.30795E+01  0.77114E-01      982.00
  0.19881E+00  0.61755E+02    0.10000E+00  0.10000E+00 -0.20000E+00  0.00000E+00  0.00000E+00  0.00000E+00    0.22557E+02  0.18322E+02 -0.40879E+02 -0.21638E+01 -0.29488E+01 -0.23588E+00      982.00
  0.22363E+00  0.61806E+02    0.11250E+00  0.11250E+00 -0.22500E+00  0.00000E+00  0.00000E+00  0.00000E+00    0.22657E+02  0.18262E+02 -0.40919E+02 -0.21273E+01 -0.28059E+01 -0.58079E+00      982.00
  0.24846E+00  0.61873E+02    0.12500E+00  0.12500E+00 -0.25000E+00  0.00000E+00  0.00000E+00  0.00000E+00    0.22705E+02  0.18261E+02 -0.40966E+02 -0.21082E+01 -0.26689E+01 -0.94223E+00      982.00
  0.27329E+00  0.61955E+02    0.13750E+00  0.13750E+00 -0.27500E+00  0.00000E+00  0.00000E+00  0.00000E+00    0.22719E+02  0.18301E+02 -0.41019E+02 -0.21023E+01 -0.25470E+01 -0.13176E+01      982.00
  0.29812E+00  0.62043E+02    0.15000E+00  0.15000E+00 -0.30000E+00  0.00000E+00  0.00000E+00  0.00000E+00    0.22685E+02  0.18388E+02 -0.41073E+02 -0.21052E+01 -0.24208E+01 -0.17193E+01      982.00
  0.32294E+00  0.62139E+02    0.16250E+00  0.16250E+00 -0.32500E+00  0.00000E+00  0.00000E+00  0.00000E+00    0.22627E+02  0.18498E+02 -0.41125E+02 -0.21122E+01 -0.23048E+01 -0.21395E+01      982.00
  0.34776E+00  0.62240E+02    0.17500E+00  0.17500E+00 -0.35000E+00  0.00000E+00  0.00000E+00  0.00000E+00    0.22549E+02  0.18624E+02 -0.41173E+02 -0.21190E+01 -0.21950E+01 -0.25802E+01      982.00
  0.37257E+00  0.62339E+02    0.18750E+00  0.18750E+00 -0.37500E+00  0.00000E+00  0.00000E+00  0.00000E+00    0.22440E+02  0.18774E+02 -0.41214E+02 -0.21215E+01 -0.20744E+01 -0.30481E+01      982.00
  0.39736E+00  0.62440E+02    0.20000E+00  0.20000E+00 -0.40000E+00  0.00000E+00  0.00000E+00  0.00000E+00    0.22308E+02  0.18938E+02 -0.41246E+02 -0.21160E+01 -0.19448E+01 -0.35399E+01      982.00
  0.42213E+00  0.62545E+02    0.21250E+00  0.21250E+00 -0.42500E+00  0.00000E+00  0.00000E+00  0.00000E+00    0.22158E+02  0.19114E+02 -0.41272E+02 -0.20994E+01 -0.18026E+01 -0.40535E+01      982.00
  0.44688E+00  0.62656E+02    0.22500E+00  0.22500E+00 -0.45000E+00  0.00000E+00  0.00000E+00  0.00000E+00    0.21994E+02  0.19298E+02 -0.41292E+02 -0.20694E+01 -0.16453E+01 -0.45857E+01      982.00
  0.47159E+00  0.62778E+02    0.23750E+00  0.23750E+00 -0.47500E+00  0.00000E+00  0.00000E+00  0.00000E+00    0.21816E+02  0.19492E+02 -0.41308E+02 -0.20239E+01 -0.14691E+01 -0.51315E+01      982.00
  0.49627E+00  0.62918E+02    0.25000E+00  0.25000E+00 -0.50000E+00  0.00000E+00  0.00000E+00  0.00000E+00    0.21636E+02  0.19688E+02 -0.41324E+02 -0.19627E+01 -0.12795E+01 -0.56852E+01      982.00
  0.52090E+00  0.63076E+02    0.26250E+00  0.26250E+00 -0.52500E+00  0.00000E+00  0.00000E+00  0.00000E+00    0.21455E+02  0.19888E+02 -0.41343E+02 -0.18857E+01 -0.10759E+01 -0.62401E+01      982.00
  0.54548E+00  0.63257E+02    0.27500E+00  0.27500E+00 -0.55000E+00  0.00000E+00  0.00000E+00  0.00000E+00    0.21280E+02  0.20087E+02 -0.41367E+02 -0.17940E+01 -0.86129E+00 -0.67888E+01      982.00
  0.57000E+00  0.63460E+02    0.28750E+00  0.28750E+00 -0.57500E+00  0.00000E+00  0.00000E+00  0.00000E+00    0.21113E+02  0.20285E+02 -0.41398E+02 -0.16892E+01 -0.63973E+00 -0.73244E+01      982.00
  0.59446E+00  0.63686E+02    0.30000E+00  0.30000E+00 -0.60000E+00  0.00000E+00  0.00000E+00  0.00000E+00    0.20959E+02  0.20478E+02 -0.41438E+02 -0.15737E+01 -0.41576E+00 -0.78406E+01      982.00
  0.61886E+00  0.63932E+02    0.31250E+00  0.31250E+00 -0.62500E+00  0.00000E+00  0.00000E+00  0.00000E+00    0.20821E+02  0.20666E+02 -0.41487E+02 -0.14500E+01 -0.19389E+00 -0.83321E+01      982.00
  0.64320E+00  0.64196E+02    0.32500E+00  0.32500E+00 -0.65000E+00  0.00000E+00  0.00000E+00  0.00000E+00    0.20703E+02  0.20843E+02 -0.41547E+02 -0.13211E+01  0.19254E-01 -0.87948E+01      982.00
  0.66746E+00  0.64471E+02    0.33750E+00  0.33750E+00 -0.67500E+00  0.00000E+00  0.00000E+00  0.00000E+00    0.20602E+02  0.21014E+02 -0.41615E+02 -0.11881E+01  0.22540E+00 -0.92258E+01      982.00
  0.69167E+00  0.64754E+02    0.35000E+00  0.35000E+00 -0.70000E+00  0.00000E+00  0.00000E+00  0.00000E+00    0.20518E+02  0.21174E+02 -0.41692E+02 -0.10536E+01  0.41934E+00 -0.96237E+01      982.00
  0.71582E+00  0.65042E+02    0.36250E+00  0.36250E+00 -0.72500E+00  0.00000E+00  0.00000E+00  0.00000E+00    0.20453E+02  0.21324E+02 -0.41777E+02 -0.91922E+00  0.59923E+00 -0.99881E+01      982.00
  0.73990E+00  0.65331E+02    0.37500E+00  0.37500E+00 -0.75000E+00  0.00000E+00  0.00000E+00  0.00000E+00    0.20404E+02  0.21464E+02 -0.41869E+02 -0.78637E+00  0.76405E+00 -0.10319E+02      982.00
  0.76393E+00  0.65619E+02    0.38750E+00  0.38750E+00 -0.77500E+00  0.00000E+00  0.00000E+00  0.00000E+00    0.20367E+02  0.21598E+02 -0.41965E+02 -0.65283E+00  0.91997E+00 -0.10620E+02      982.00
  0.78792E+00  0.65899E+02    0.40000E+00  0.40000E+00 -0.80000E+00  0.00000E+00  0.00000E+00  0.00000E+00    0.20349E+02  0.21717E+02 -0.42066E+02 -0.52547E+00  0.10537E+01 -0.10888E+02      982.00
  0.81185E+00  0.66174E+02    0.41250E+00  0.41250E+00 -0.82500E+00  0.00000E+00  0.00000E+00  0.00000E+00    0.20345E+02  0.21826E+02 -0.42170E+02 -0.40262E+00  0.11706E+01 -0.11128E+02      982.00
  0.83575E+00  0.66438E+02    0.42500E+00  0.42500E+00 -0.85000E+00  0.00000E+00  0.00000E+00  0.00000E+00    0.20349E+02  0.21926E+02 -0.42276E+02 -0.28310E+00  0.12754E+01 -0.11340E+02      982.00
  0.85961E+00  0.66692E+02    0.43750E+00  0.43750E+00 -0.87500E+00  0.00000E+00  0.00000E+00  0.00000E+00    0.20363E+02  0.22019E+02 -0.42381E+02 -0.16770E+00  0.13671E+01 -0.11527E+02      982.00
  0.88344E+00  0.66937E+02    0.45000E+00  0.45000E+00 -0.90000E+00  0.00000E+00  0.00000E+00  0.00000E+00    0.20381E+02  0.22108E+02 -0.42489E+02 -0.52170E-01  0.14523E+01 -0.11692E+02      982.00
  0.90725E+00  0.67110E+02    0.46250E+00  0.46250E+00 -0.92500E+00  0.00000E+00  0.00000E+00  0.00000E+00    0.20399E+02  0.22163E+02 -0.42562E+02  0.36486E-01  0.15058E+01 -0.11813E+02      982.00
  0.93103E+00  0.67274E+02    0.47500E+00  0.47500E+00 -0.95000E+00  0.00000E+00  0.00000E+00  0.00000E+00    0.20421E+02  0.22215E+02 -0.42636E+02  0.12326E+00  0.15533E+01 -0.11916E+02      982.00
  0.95480E+00  0.67430E+02    0.48750E+00  0.48750E+00 -0.97500E+00  0.00000E+00  0.00000E+00  0.00000E+00    0.20448E+02  0.22263E+02 -0.42710E+02  0.20637E+00  0.15931E+01 -0.12003E+02      982.00
  0.97855E+00  0.67587E+02    0.50000E+00  0.50000E+00 -0.10000E+01  0.00000E+00  0.00000E+00  0.00000E+00    0.20479E+02  0.22310E+02 -0.42789E+02  0.28973E+00  0.16287E+01 -0.12080E+02      982.00
