          Evm          Svm            E11          E22          E33          E23          E13          E12         SDEV11       SDEV22       SDEV33       SDEV23       SDEV13       SDEV12      TEMP
  0.00000E+00  0.50750E+02    0.00000E+00  0.00000E+00  0.00000E+00  0.00000E+00  0.00000E+00  0.00000E+00    0.19630E+02  0.13433E+02 -0.33063E+02 -0.44388E+01  0.35084E+00  0.30388E+01      982.00
  0.24431E-01  0.50259E+02    0.12500E-01  0.12500E-01 -0.25000E-01  0.00000E+00  0.00000E+00  0.00000E+00    0.19334E+02  0.13460E+02 -0.32794E+02 -0.44146E+01  0.52034E+00  0.26447E+01      982.00
  0.48900E-01  0.49794E+02    0.25000E-01  0.25000E-01 -0.50000E-01  0.00000E+00  0.00000E+00  0.00000E+00    0.19027E+02  0.13516E+02 -0.32543E+02 -0.43768E+01  0.69706E+00  0.22266E+01      982.00
  0.73408E-01  0.49365E+02    0.37500E-01  0.37500E-01 -0.75000E-01  0.00000E+00  0.00000E+00  0.00000E+00    0.18714E+02  0.13601E+02 -0.32315E+02 -0.43160E+01  0.88887E+00  0.17725E+01      982.00
  0.97956E-01  0.48968E+02    0.50000E-01  0.50000E-01 -0.10000E+00  0.00000E+00  0.00000E+00  0.00000E+00    0.18402E+02  0.13703E+02 -0.32105E+02 -0.42290E+01  0.10932E+01  0.12821E+01      982.00
  0.12254E+00  0.48611E+02    0.62500E-01  0.62500E-01 -0.12500E+00  0.00000E+00  0.00000E+00  0.00000E+00    0.18103E+02  0.13812E+02 -0.31916E+02 -0.41029E+01  0.13183E+01  0.74424E+00      982.00
  0.14716E+00  0.48297E+02    0.75000E-01  0.75000E-01 -0.15000E+00  0.00000E+00  0.00000E+00  0.00000E+00    0.17830E+02  0.13915E+02 -0.31745E+02 -0.39276E+01  0.15725E+01  0.15261E+00      982.00
  0.17181E+00  0.48048E+02    0.87500E-01  0.87500E-01 -0.17500E+00  0.00000E+00  0.00000E+00  0.00000E+00    0.17596E+02  0.14005E+02 -0.31601E+02 -0.36916E+01  0.18635E+01 -0.49706E+00      982.00
  0.19647E+00  0.47871E+02    0.10000E+00  0.10000E+00 -0.20000E+00  0.00000E+00  0.00000E+00  0.00000E+00    0.17411E+02  0.14071E+02 -0.31483E+02 -0.33829E+01  0.21985E+01 -0.12060E+01      982.00
  0.22114E+00  0.47797E+02    0.11250E+00  0.11250E+00 -0.22500E+00  0.00000E+00  0.00000E+00  0.00000E+00    0.17286E+02  0.14113E+02 -0.31399E+02 -0.29911E+01  0.25895E+01 -0.19762E+01      982.00
  0.24577E+00  0.47837E+02    0.12500E+00  0.12500E+00 -0.25000E+00  0.00000E+00  0.00000E+00  0.00000E+00    0.17222E+02  0.14127E+02 -0.31349E+02 -0.25164E+01  0.30307E+01 -0.27948E+01      982.00
  0.27035E+00  0.48039E+02    0.13750E+00  0.13750E+00 -0.27500E+00  0.00000E+00  0.00000E+00  0.00000E+00    0.17228E+02  0.14124E+02 -0.31352E+02 -0.19542E+01  0.35259E+01 -0.36538E+01      982.00
  0.29482E+00  0.48416E+02    0.15000E+00  0.15000E+00 -0.30000E+00  0.00000E+00  0.00000E+00  0.00000E+00    0.17300E+02  0.14114E+02 -0.31414E+02 -0.13232E+01  0.40574E+01 -0.45298E+01      982.00
  0.31915E+00  0.48991E+02    0.16250E+00  0.16250E+00 -0.32500E+00  0.00000E+00  0.00000E+00  0.00000E+00    0.17432E+02  0.14109E+02 -0.31542E+02 -0.62351E+00  0.46219E+01 -0.54189E+01      982.00
  0.34329E+00  0.49794E+02    0.17500E+00  0.17500E+00 -0.35000E+00  0.00000E+00  0.00000E+00  0.00000E+00    0.17620E+02  0.14123E+02 -0.31743E+02  0.17185E+00  0.52351E+01 -0.63445E+01      982.00
  0.36720E+00  0.50790E+02    0.18750E+00  0.18750E+00 -0.37500E+00  0.00000E+00  0.00000E+00  0.00000E+00    0.17840E+02  0.14145E+02 -0.31985E+02  0.11047E+01  0.58747E+01 -0.73096E+01      982.00
  0.39082E+00  0.51728E+02    0.20000E+00  0.20000E+00 -0.40000E+00  0.00000E+00  0.00000E+00  0.00000E+00    0.18069E+02  0.14157E+02 -0.32226E+02  0.19577E+01  0.62983E+01 -0.81073E+01      982.00
  0.41418E+00  0.52466E+02    0.21250E+00  0.21250E+00 -0.42500E+00  0.00000E+00  0.00000E+00  0.00000E+00    0.18303E+02  0.14175E+02 -0.32478E+02  0.25077E+01  0.64347E+01 -0.86312E+01      982.00
  0.43739E+00  0.53073E+02    0.22500E+00  0.22500E+00 -0.45000E+00  0.00000E+00  0.00000E+00  0.00000E+00    0.18548E+02  0.14207E+02 -0.32755E+02  0.28038E+01  0.64071E+01 -0.89792E+01      982.00
  0.46054E+00  0.53589E+02    0.23750E+00  0.23750E+00 -0.47500E+00  0.00000E+00  0.00000E+00  0.00000E+00    0.18797E+02  0.14240E+02 -0.33037E+02  0.29316E+01  0.62992E+01 -0.92310E+01      982.00
  0.48365E+00  0.54050E+02    0.25000E+00  0.25000E+00 -0.50000E+00  0.00000E+00  0.00000E+00  0.00000E+00    0.19045E+02  0.14276E+02 -0.33321E+02  0.29590E+01  0.61504E+01 -0.94235E+01      982.00
  0.50677E+00  0.54488E+02    0.26250E+00  0.26250E+00 -0.52500E+00  0.00000E+00  0.00000E+00  0.00000E+00    0.19288E+02  0.14312E+02 -0.33600E+02  0.29309E+01  0.60045E+01 -0.95948E+01      982.00
  0.52990E+00  0.54925E+02    0.27500E+00  0.27500E+00 -0.55000E+00  0.00000E+00  0.00000E+00  0.00000E+00    0.19529E+02  0.14349E+02 -0.33879E+02  0.28868E+01  0.58682E+01 -0.97610E+01      982.00
  0.55303E+00  0.55356E+02    0.28750E+00  0.28750E+00 -0.57500E+00  0.00000E+00  0.00000E+00  0.00000E+00    0.19764E+02  0.14385E+02 -0.34149E+02  0.28421E+01  0.57458E+01 -0.99230E+01      982.00
  0.57616E+00  0.55795E+02    0.30000E+00  0.30000E+00 -0.60000E+00  0.00000E+00  0.00000E+00  0.00000E+00    0.20001E+02  0.14424E+02 -0.34425E+02  0.28049E+01  0.56352E+01 -0.10075E+02      982.00
  0.59930E+00  0.56248E+02    0.31250E+00  0.31250E+00 -0.62500E+00  0.00000E+00  0.00000E+00  0.00000E+00    0.20231E+02  0.14468E+02 -0.34698E+02  0.27844E+01  0.55509E+01 -0.10235E+02      982.00
  0.62243E+00  0.56714E+02    0.32500E+00  0.32500E+00 -0.65000E+00  0.00000E+00  0.00000E+00  0.00000E+00    0.20457E+02  0.14519E+02 -0.34976E+02  0.27803E+01  0.54851E+01 -0.10394E+02      982.00
  0.64556E+00  0.57178E+02    0.33750E+00  0.33750E+00 -0.67500E+00  0.00000E+00  0.00000E+00  0.00000E+00    0.20682E+02  0.14569E+02 -0.35251E+02  0.27922E+01  0.54310E+01 -0.10543E+02      982.00
  0.66868E+00  0.57669E+02    0.35000E+00  0.35000E+00 -0.70000E+00  0.00000E+00  0.00000E+00  0.00000E+00    0.20903E+02  0.14636E+02 -0.35540E+02  0.28195E+01  0.53969E+01 -0.10694E+02      982.00
  0.69179E+00  0.58149E+02    0.36250E+00  0.36250E+00 -0.72500E+00  0.00000E+00  0.00000E+00  0.00000E+00    0.21115E+02  0.14708E+02 -0.35823E+02  0.28572E+01  0.53695E+01 -0.10832E+02      982.00
  0.71489E+00  0.58632E+02    0.37500E+00  0.37500E+00 -0.75000E+00  0.00000E+00  0.00000E+00  0.00000E+00    0.21324E+02  0.14787E+02 -0.36111E+02  0.29021E+01  0.53499E+01 -0.10962E+02      982.00
  0.73799E+00  0.59112E+02    0.38750E+00  0.38750E+00 -0.77500E+00  0.00000E+00  0.00000E+00  0.00000E+00    0.21526E+02  0.14873E+02 -0.36400E+02  0.29530E+01  0.53347E+01 -0.11081E+02      982.00
  0.76108E+00  0.59581E+02    0.40000E+00  0.40000E+00 -0.80000E+00  0.00000E+00  0.00000E+00  0.00000E+00    0.21722E+02  0.14966E+02 -0.36687E+02  0.29992E+01  0.53238E+01 -0.11184E+02      982.00
  0.78417E+00  0.60052E+02    0.41250E+00  0.41250E+00 -0.82500E+00  0.00000E+00  0.00000E+00  0.00000E+00    0.21915E+02  0.15065E+02 -0.36980E+02  0.30552E+01  0.53113E+01 -0.11278E+02      982.00
  0.80726E+00  0.60505E+02    0.42500E+00  0.42500E+00 -0.85000E+00  0.00000E+00  0.00000E+00  0.00000E+00    0.22098E+02  0.15166E+02 -0.37264E+02  0.31124E+01  0.52985E+01 -0.11360E+02      982.00
  0.83036E+00  0.60948E+02    0.43750E+00  0.43750E+00 -0.87500E+00  0.00000E+00  0.00000E+00  0.00000E+00    0.22275E+02  0.15272E+02 -0.37547E+02  0.31686E+01  0.52841E+01 -0.11432E+02      982.00
  0.85346E+00  0.61383E+02    0.45000E+00  0.45000E+00 -0.90000E+00  0.00000E+00  0.00000E+00  0.00000E+00    0.22446E+02  0.15384E+02 -0.37830E+02  0.32200E+01  0.52659E+01 -0.11490E+02      982.00
  0.87657E+00  0.61803E+02    0.46250E+00  0.46250E+00 -0.92500E+00  0.00000E+00  0.00000E+00  0.00000E+00    0.22609E+02  0.15497E+02 -0.38106E+02  0.32738E+01  0.52495E+01 -0.11542E+02      982.00
  0.89969E+00  0.62210E+02    0.47500E+00  0.47500E+00 -0.95000E+00  0.00000E+00  0.00000E+00  0.00000E+00    0.22765E+02  0.15613E+02 -0.38378E+02  0.33256E+01  0.52300E+01 -0.11584E+02      982.00
  0.92283E+00  0.62609E+02    0.48750E+00  0.48750E+00 -0.97500E+00  0.00000E+00  0.00000E+00  0.00000E+00    0.22917E+02  0.15731E+02 -0.38647E+02  0.33763E+01  0.52098E+01 -0.11617E+02      982.00
  0.94597E+00  0.62992E+02    0.50000E+00  0.50000E+00 -0.10000E+01  0.00000E+00  0.00000E+00  0.00000E+00    0.23061E+02  0.15851E+02 -0.38911E+02  0.34231E+01  0.51867E+01 -0.11640E+02      982.00
