          Evm          Svm            E11          E22          E33          E23          E13          E12         SDEV11       SDEV22       SDEV33       SDEV23       SDEV13       SDEV12      TEMP
  0.00000E+00  0.52246E+02    0.00000E+00  0.00000E+00  0.00000E+00  0.00000E+00  0.00000E+00  0.00000E+00    0.12278E+02  0.20890E+02 -0.33168E+02 -0.20129E+01 -0.68842E+01 -0.38462E+01      982.00
  0.23807E-01  0.52432E+02    0.12500E-01  0.12500E-01 -0.25000E-01  0.00000E+00  0.00000E+00  0.00000E+00    0.12217E+02  0.21052E+02 -0.33269E+02 -0.18793E+01 -0.68967E+01 -0.39542E+01      982.00
  0.47601E-01  0.52657E+02    0.25000E-01  0.25000E-01 -0.50000E-01  0.00000E+00  0.00000E+00  0.00000E+00    0.12177E+02  0.21220E+02 -0.33398E+02 -0.17754E+01 -0.68967E+01 -0.40660E+01      982.00
  0.71386E-01  0.52947E+02    0.37500E-01  0.37500E-01 -0.75000E-01  0.00000E+00  0.00000E+00  0.00000E+00    0.12150E+02  0.21411E+02 -0.33561E+02 -0.16744E+01 -0.69113E+01 -0.42023E+01      982.00
  0.95156E-01  0.53315E+02    0.50000E-01  0.50000E-01 -0.10000E+00  0.00000E+00  0.00000E+00  0.00000E+00    0.12135E+02  0.21632E+02 -0.33767E+02 -0.15701E+01 -0.69476E+01 -0.43665E+01      982.00
  0.11891E+00  0.53767E+02    0.62500E-01  0.62500E-01 -0.12500E+00  0.00000E+00  0.00000E+00  0.00000E+00    0.12132E+02  0.21884E+02 -0.34017E+02 -0.14692E+01 -0.70078E+01 -0.45548E+01      982.00
  0.14263E+00  0.54298E+02    0.75000E-01  0.75000E-01 -0.15000E+00  0.00000E+00  0.00000E+00  0.00000E+00    0.12142E+02  0.22167E+02 -0.34309E+02 -0.13718E+01 -0.70905E+01 -0.47619E+01      982.00
  0.16633E+00  0.54899E+02    0.87500E-01  0.87500E-01 -0.17500E+00  0.00000E+00  0.00000E+00  0.00000E+00    0.12162E+02  0.22477E+02 -0.34639E+02 -0.12793E+01 -0.71915E+01 -0.49806E+01      982.00
  0.18999E+00  0.55557E+02    0.10000E+00  0.10000E+00 -0.20000E+00  0.00000E+00  0.00000E+00  0.00000E+00    0.12191E+02  0.22810E+02 -0.35001E+02 -0.11930E+01 -0.73058E+01 -0.52027E+01      982.00
  0.21361E+00  0.56257E+02    0.11250E+00  0.11250E+00 -0.22500E+00  0.00000E+00  0.00000E+00  0.00000E+00    0.12227E+02  0.23161E+02 -0.35389E+02 -0.11098E+01 -0.74279E+01 -0.54220E+01      982.00
  0.23720E+00  0.56981E+02    0.12500E+00  0.12500E+00 -0.25000E+00  0.00000E+00  0.00000E+00  0.00000E+00    0.12269E+02  0.23524E+02 -0.35793E+02 -0.10330E+01 -0.75505E+01 -0.56281E+01      982.00
  0.26076E+00  0.57709E+02    0.13750E+00  0.13750E+00 -0.27500E+00  0.00000E+00  0.00000E+00  0.00000E+00    0.12314E+02  0.23890E+02 -0.36204E+02 -0.96946E+00 -0.76716E+01 -0.58121E+01      982.00
  0.28428E+00  0.58432E+02    0.15000E+00  0.15000E+00 -0.30000E+00  0.00000E+00  0.00000E+00  0.00000E+00    0.12361E+02  0.24256E+02 -0.36617E+02 -0.90805E+00 -0.77837E+01 -0.59737E+01      982.00
  0.30778E+00  0.59134E+02    0.16250E+00  0.16250E+00 -0.32500E+00  0.00000E+00  0.00000E+00  0.00000E+00    0.12409E+02  0.24616E+02 -0.37025E+02 -0.85304E+00 -0.78871E+01 -0.61083E+01      982.00
  0.33126E+00  0.59809E+02    0.17500E+00  0.17500E+00 -0.35000E+00  0.00000E+00  0.00000E+00  0.00000E+00    0.12454E+02  0.24967E+02 -0.37420E+02 -0.80438E+00 -0.79831E+01 -0.62148E+01      982.00
  0.35472E+00  0.60453E+02    0.18750E+00  0.18750E+00 -0.37500E+00  0.00000E+00  0.00000E+00  0.00000E+00    0.12494E+02  0.25308E+02 -0.37802E+02 -0.76162E+00 -0.80739E+01 -0.62937E+01      982.00
  0.37817E+00  0.61065E+02    0.20000E+00  0.20000E+00 -0.40000E+00  0.00000E+00  0.00000E+00  0.00000E+00    0.12533E+02  0.25641E+02 -0.38174E+02 -0.73172E+00 -0.81464E+01 -0.63417E+01      982.00
  0.40162E+00  0.61644E+02    0.21250E+00  0.21250E+00 -0.42500E+00  0.00000E+00  0.00000E+00  0.00000E+00    0.12565E+02  0.25961E+02 -0.38527E+02 -0.69867E+00 -0.82189E+01 -0.63660E+01      982.00
  0.42505E+00  0.62183E+02    0.22500E+00  0.22500E+00 -0.45000E+00  0.00000E+00  0.00000E+00  0.00000E+00    0.12599E+02  0.26266E+02 -0.38865E+02 -0.67479E+00 -0.82681E+01 -0.63661E+01      982.00
  0.44849E+00  0.62685E+02    0.23750E+00  0.23750E+00 -0.47500E+00  0.00000E+00  0.00000E+00  0.00000E+00    0.12630E+02  0.26555E+02 -0.39185E+02 -0.65281E+00 -0.83069E+01 -0.63475E+01      982.00
  0.47193E+00  0.63135E+02    0.25000E+00  0.25000E+00 -0.50000E+00  0.00000E+00  0.00000E+00  0.00000E+00    0.12656E+02  0.26820E+02 -0.39476E+02 -0.62842E+00 -0.83404E+01 -0.63056E+01      982.00
  0.49538E+00  0.63570E+02    0.26250E+00  0.26250E+00 -0.52500E+00  0.00000E+00  0.00000E+00  0.00000E+00    0.12683E+02  0.27080E+02 -0.39763E+02 -0.60789E+00 -0.83602E+01 -0.62564E+01      982.00
  0.51884E+00  0.63974E+02    0.27500E+00  0.27500E+00 -0.55000E+00  0.00000E+00  0.00000E+00  0.00000E+00    0.12707E+02  0.27325E+02 -0.40032E+02 -0.58701E+00 -0.83736E+01 -0.61960E+01      982.00
  0.54230E+00  0.64348E+02    0.28750E+00  0.28750E+00 -0.57500E+00  0.00000E+00  0.00000E+00  0.00000E+00    0.12729E+02  0.27556E+02 -0.40285E+02 -0.56547E+00 -0.83808E+01 -0.61264E+01      982.00
  0.56578E+00  0.64696E+02    0.30000E+00  0.30000E+00 -0.60000E+00  0.00000E+00  0.00000E+00  0.00000E+00    0.12749E+02  0.27774E+02 -0.40522E+02 -0.54241E+00 -0.83850E+01 -0.60493E+01      982.00
  0.58927E+00  0.65018E+02    0.31250E+00  0.31250E+00 -0.62500E+00  0.00000E+00  0.00000E+00  0.00000E+00    0.12766E+02  0.27979E+02 -0.40746E+02 -0.51929E+00 -0.83825E+01 -0.59654E+01      982.00
  0.61277E+00  0.65317E+02    0.32500E+00  0.32500E+00 -0.65000E+00  0.00000E+00  0.00000E+00  0.00000E+00    0.12782E+02  0.28172E+02 -0.40955E+02 -0.49544E+00 -0.83760E+01 -0.58762E+01      982.00
  0.63628E+00  0.65594E+02    0.33750E+00  0.33750E+00 -0.67500E+00  0.00000E+00  0.00000E+00  0.00000E+00    0.12796E+02  0.28354E+02 -0.41150E+02 -0.47080E+00 -0.83665E+01 -0.57829E+01      982.00
  0.65981E+00  0.65851E+02    0.35000E+00  0.35000E+00 -0.70000E+00  0.00000E+00  0.00000E+00  0.00000E+00    0.12808E+02  0.28526E+02 -0.41334E+02 -0.44541E+00 -0.83545E+01 -0.56862E+01      982.00
  0.68335E+00  0.66089E+02    0.36250E+00  0.36250E+00 -0.72500E+00  0.00000E+00  0.00000E+00  0.00000E+00    0.12818E+02  0.28687E+02 -0.41505E+02 -0.41932E+00 -0.83407E+01 -0.55870E+01      982.00
  0.70690E+00  0.66309E+02    0.37500E+00  0.37500E+00 -0.75000E+00  0.00000E+00  0.00000E+00  0.00000E+00    0.12827E+02  0.28837E+02 -0.41664E+02 -0.39530E+00 -0.83307E+01 -0.54813E+01      982.00
  0.73046E+00  0.66515E+02    0.38750E+00  0.38750E+00 -0.77500E+00  0.00000E+00  0.00000E+00  0.00000E+00    0.12834E+02  0.28981E+02 -0.41815E+02 -0.36858E+00 -0.83149E+01 -0.53783E+01      982.00
  0.75403E+00  0.66706E+02    0.40000E+00  0.40000E+00 -0.80000E+00  0.00000E+00  0.00000E+00  0.00000E+00    0.12839E+02  0.29116E+02 -0.41955E+02 -0.34079E+00 -0.82979E+01 -0.52746E+01      982.00
  0.77762E+00  0.66884E+02    0.41250E+00  0.41250E+00 -0.82500E+00  0.00000E+00  0.00000E+00  0.00000E+00    0.12843E+02  0.29244E+02 -0.42087E+02 -0.31237E+00 -0.82805E+01 -0.51703E+01      982.00
  0.80122E+00  0.67048E+02    0.42500E+00  0.42500E+00 -0.85000E+00  0.00000E+00  0.00000E+00  0.00000E+00    0.12845E+02  0.29369E+02 -0.42214E+02 -0.27297E+00 -0.82601E+01 -0.50396E+01      982.00
  0.82483E+00  0.67203E+02    0.43750E+00  0.43750E+00 -0.87500E+00  0.00000E+00  0.00000E+00  0.00000E+00    0.12846E+02  0.29479E+02 -0.42326E+02 -0.25315E+00 -0.82457E+01 -0.49608E+01      982.00
  0.84844E+00  0.67345E+02    0.45000E+00  0.45000E+00 -0.90000E+00  0.00000E+00  0.00000E+00  0.00000E+00    0.12847E+02  0.29590E+02 -0.42436E+02 -0.21305E+00 -0.82256E+01 -0.48316E+01      982.00
  0.87207E+00  0.67415E+02    0.46250E+00  0.46250E+00 -0.92500E+00  0.00000E+00  0.00000E+00  0.00000E+00    0.12834E+02  0.29668E+02 -0.42502E+02 -0.19751E+00 -0.81494E+01 -0.47734E+01      982.00
  0.89572E+00  0.67472E+02    0.47500E+00  0.47500E+00 -0.95000E+00  0.00000E+00  0.00000E+00  0.00000E+00    0.12824E+02  0.29739E+02 -0.42562E+02 -0.17038E+00 -0.80950E+01 -0.46645E+01      982.00
  0.91937E+00  0.67525E+02    0.48750E+00  0.48750E+00 -0.97500E+00  0.00000E+00  0.00000E+00  0.00000E+00    0.12812E+02  0.29806E+02 -0.42617E+02 -0.14205E+00 -0.80393E+01 -0.45642E+01      982.00
  0.94304E+00  0.67574E+02    0.50000E+00  0.50000E+00 -0.10000E+01  0.00000E+00  0.00000E+00  0.00000E+00    0.12799E+02  0.29870E+02 -0.42669E+02 -0.11342E+00 -0.79862E+01 -0.44652E+01      982.00
