          Evm          Svm            E11          E22          E33          E23          E13          E12         SDEV11       SDEV22       SDEV33       SDEV23       SDEV13       SDEV12      TEMP
  0.00000E+00  0.61337E+02    0.00000E+00  0.00000E+00  0.00000E+00  0.00000E+00  0.00000E+00  0.00000E+00    0.18242E+02  0.22212E+02 -0.40454E+02 -0.10161E+01  0.18791E+01  0.42648E+01      982.00
  0.24733E-01  0.61603E+02    0.12500E-01  0.12500E-01 -0.25000E-01  0.00000E+00  0.00000E+00  0.00000E+00    0.19331E+02  0.21282E+02 -0.40612E+02 -0.10145E+01  0.21816E+01  0.46068E+01      982.00
  0.49455E-01  0.61864E+02    0.25000E-01  0.25000E-01 -0.50000E-01  0.00000E+00  0.00000E+00  0.00000E+00    0.20334E+02  0.20419E+02 -0.40752E+02 -0.10278E+01  0.23428E+01  0.48601E+01      982.00
  0.74157E-01  0.62087E+02    0.37500E-01  0.37500E-01 -0.75000E-01  0.00000E+00  0.00000E+00  0.00000E+00    0.21152E+02  0.19710E+02 -0.40862E+02 -0.10413E+01  0.23679E+01  0.50452E+01      982.00
  0.98837E-01  0.62279E+02    0.50000E-01  0.50000E-01 -0.10000E+00  0.00000E+00  0.00000E+00  0.00000E+00    0.21787E+02  0.19165E+02 -0.40952E+02 -0.10455E+01  0.22991E+01  0.51952E+01      982.00
  0.12350E+00  0.62460E+02    0.62500E-01  0.62500E-01 -0.12500E+00  0.00000E+00  0.00000E+00  0.00000E+00    0.22274E+02  0.18764E+02 -0.41038E+02 -0.10390E+01  0.21742E+01  0.53337E+01      982.00
  0.14813E+00  0.62654E+02    0.75000E-01  0.75000E-01 -0.15000E+00  0.00000E+00  0.00000E+00  0.00000E+00    0.22667E+02  0.18467E+02 -0.41133E+02 -0.10225E+01  0.20289E+01  0.54767E+01      982.00
  0.17275E+00  0.62874E+02    0.87500E-01  0.87500E-01 -0.17500E+00  0.00000E+00  0.00000E+00  0.00000E+00    0.23003E+02  0.18241E+02 -0.41244E+02 -0.99832E+00  0.18828E+01  0.56274E+01      982.00
  0.19735E+00  0.63117E+02    0.10000E+00  0.10000E+00 -0.20000E+00  0.00000E+00  0.00000E+00  0.00000E+00    0.23287E+02  0.18084E+02 -0.41371E+02 -0.97092E+00  0.17344E+01  0.57897E+01      982.00
  0.22193E+00  0.63388E+02    0.11250E+00  0.11250E+00 -0.22500E+00  0.00000E+00  0.00000E+00  0.00000E+00    0.23552E+02  0.17962E+02 -0.41514E+02 -0.94063E+00  0.15978E+01  0.59591E+01      982.00
  0.24649E+00  0.63680E+02    0.12500E+00  0.12500E+00 -0.25000E+00  0.00000E+00  0.00000E+00  0.00000E+00    0.23802E+02  0.17868E+02 -0.41670E+02 -0.90956E+00  0.14714E+01  0.61356E+01      982.00
  0.27103E+00  0.63992E+02    0.13750E+00  0.13750E+00 -0.27500E+00  0.00000E+00  0.00000E+00  0.00000E+00    0.24036E+02  0.17801E+02 -0.41837E+02 -0.87936E+00  0.13488E+01  0.63191E+01      982.00
  0.29555E+00  0.64317E+02    0.15000E+00  0.15000E+00 -0.30000E+00  0.00000E+00  0.00000E+00  0.00000E+00    0.24265E+02  0.17747E+02 -0.42011E+02 -0.85008E+00  0.12335E+01  0.65054E+01      982.00
  0.32004E+00  0.64649E+02    0.16250E+00  0.16250E+00 -0.32500E+00  0.00000E+00  0.00000E+00  0.00000E+00    0.24490E+02  0.17698E+02 -0.42188E+02 -0.82175E+00  0.11250E+01  0.66926E+01      982.00
  0.34451E+00  0.64982E+02    0.17500E+00  0.17500E+00 -0.35000E+00  0.00000E+00  0.00000E+00  0.00000E+00    0.24713E+02  0.17652E+02 -0.42365E+02 -0.79428E+00  0.10216E+01  0.68796E+01      982.00
  0.36896E+00  0.65311E+02    0.18750E+00  0.18750E+00 -0.37500E+00  0.00000E+00  0.00000E+00  0.00000E+00    0.24934E+02  0.17603E+02 -0.42537E+02 -0.76725E+00  0.92239E+00  0.70652E+01      982.00
  0.39339E+00  0.65634E+02    0.20000E+00  0.20000E+00 -0.40000E+00  0.00000E+00  0.00000E+00  0.00000E+00    0.25154E+02  0.17550E+02 -0.42704E+02 -0.74003E+00  0.82630E+00  0.72487E+01      982.00
  0.41779E+00  0.65949E+02    0.21250E+00  0.21250E+00 -0.42500E+00  0.00000E+00  0.00000E+00  0.00000E+00    0.25371E+02  0.17494E+02 -0.42864E+02 -0.71198E+00  0.72996E+00  0.74290E+01      982.00
  0.44216E+00  0.66250E+02    0.22500E+00  0.22500E+00 -0.45000E+00  0.00000E+00  0.00000E+00  0.00000E+00    0.25587E+02  0.17427E+02 -0.43014E+02 -0.68184E+00  0.63817E+00  0.76068E+01      982.00
  0.46651E+00  0.66536E+02    0.23750E+00  0.23750E+00 -0.47500E+00  0.00000E+00  0.00000E+00  0.00000E+00    0.25800E+02  0.17353E+02 -0.43152E+02 -0.64878E+00  0.54782E+00  0.77809E+01      982.00
  0.49083E+00  0.66808E+02    0.25000E+00  0.25000E+00 -0.50000E+00  0.00000E+00  0.00000E+00  0.00000E+00    0.26007E+02  0.17274E+02 -0.43280E+02 -0.61184E+00  0.45852E+00  0.79510E+01      982.00
  0.51512E+00  0.67063E+02    0.26250E+00  0.26250E+00 -0.52500E+00  0.00000E+00  0.00000E+00  0.00000E+00    0.26206E+02  0.17192E+02 -0.43398E+02 -0.57014E+00  0.36995E+00  0.81168E+01      982.00
  0.53939E+00  0.67302E+02    0.27500E+00  0.27500E+00 -0.55000E+00  0.00000E+00  0.00000E+00  0.00000E+00    0.26393E+02  0.17111E+02 -0.43504E+02 -0.52289E+00  0.28190E+00  0.82782E+01      982.00
  0.56363E+00  0.67520E+02    0.28750E+00  0.28750E+00 -0.57500E+00  0.00000E+00  0.00000E+00  0.00000E+00    0.26570E+02  0.17027E+02 -0.43597E+02 -0.47128E+00  0.20027E+00  0.84297E+01      982.00
  0.58784E+00  0.67725E+02    0.30000E+00  0.30000E+00 -0.60000E+00  0.00000E+00  0.00000E+00  0.00000E+00    0.26724E+02  0.16960E+02 -0.43684E+02 -0.41159E+00  0.11243E+00  0.85828E+01      982.00
  0.61203E+00  0.67908E+02    0.31250E+00  0.31250E+00 -0.62500E+00  0.00000E+00  0.00000E+00  0.00000E+00    0.26859E+02  0.16900E+02 -0.43759E+02 -0.34682E+00  0.30757E-01  0.87251E+01      982.00
  0.63619E+00  0.68083E+02    0.32500E+00  0.32500E+00 -0.65000E+00  0.00000E+00  0.00000E+00  0.00000E+00    0.26980E+02  0.16849E+02 -0.43829E+02 -0.26243E+00 -0.59672E-01  0.88686E+01      982.00
  0.66033E+00  0.68246E+02    0.33750E+00  0.33750E+00 -0.67500E+00  0.00000E+00  0.00000E+00  0.00000E+00    0.27059E+02  0.16834E+02 -0.43894E+02 -0.16220E+00 -0.16525E+00  0.90196E+01      982.00
  0.68445E+00  0.68374E+02    0.35000E+00  0.35000E+00 -0.70000E+00  0.00000E+00  0.00000E+00  0.00000E+00    0.27094E+02  0.16850E+02 -0.43944E+02 -0.86946E-01 -0.24775E+00  0.91492E+01      982.00
  0.70855E+00  0.68493E+02    0.36250E+00  0.36250E+00 -0.72500E+00  0.00000E+00  0.00000E+00  0.00000E+00    0.27114E+02  0.16876E+02 -0.43990E+02 -0.86390E-02 -0.32770E+00  0.92804E+01      982.00
  0.73264E+00  0.68605E+02    0.37500E+00  0.37500E+00 -0.75000E+00  0.00000E+00  0.00000E+00  0.00000E+00    0.27123E+02  0.16908E+02 -0.44031E+02  0.78758E-01 -0.40903E+00  0.94105E+01      982.00
  0.75671E+00  0.68705E+02    0.38750E+00  0.38750E+00 -0.77500E+00  0.00000E+00  0.00000E+00  0.00000E+00    0.27118E+02  0.16949E+02 -0.44067E+02  0.17416E+00 -0.49205E+00  0.95363E+01      982.00
  0.78076E+00  0.68790E+02    0.40000E+00  0.40000E+00 -0.80000E+00  0.00000E+00  0.00000E+00  0.00000E+00    0.27086E+02  0.17010E+02 -0.44096E+02  0.27396E+00 -0.57611E+00  0.96542E+01      982.00
  0.80480E+00  0.68865E+02    0.41250E+00  0.41250E+00 -0.82500E+00  0.00000E+00  0.00000E+00  0.00000E+00    0.27039E+02  0.17083E+02 -0.44121E+02  0.37535E+00 -0.65998E+00  0.97669E+01      982.00
  0.82882E+00  0.68929E+02    0.42500E+00  0.42500E+00 -0.85000E+00  0.00000E+00  0.00000E+00  0.00000E+00    0.26978E+02  0.17163E+02 -0.44142E+02  0.47768E+00 -0.74369E+00  0.98745E+01      982.00
  0.85284E+00  0.68985E+02    0.43750E+00  0.43750E+00 -0.87500E+00  0.00000E+00  0.00000E+00  0.00000E+00    0.26908E+02  0.17250E+02 -0.44158E+02  0.58043E+00 -0.82732E+00  0.99768E+01      982.00
  0.87684E+00  0.69033E+02    0.45000E+00  0.45000E+00 -0.90000E+00  0.00000E+00  0.00000E+00  0.00000E+00    0.26829E+02  0.17341E+02 -0.44170E+02  0.68318E+00 -0.91088E+00  0.10074E+02      982.00
  0.90084E+00  0.69075E+02    0.46250E+00  0.46250E+00 -0.92500E+00  0.00000E+00  0.00000E+00  0.00000E+00    0.26744E+02  0.17434E+02 -0.44178E+02  0.78565E+00 -0.99434E+00  0.10166E+02      982.00
  0.92482E+00  0.69109E+02    0.47500E+00  0.47500E+00 -0.95000E+00  0.00000E+00  0.00000E+00  0.00000E+00    0.26655E+02  0.17528E+02 -0.44183E+02  0.88762E+00 -0.10776E+01  0.10254E+02      982.00
  0.94879E+00  0.69092E+02    0.48750E+00  0.48750E+00 -0.97500E+00  0.00000E+00  0.00000E+00  0.00000E+00    0.26526E+02  0.17633E+02 -0.44159E+02  0.99195E+00 -0.11602E+01  0.10325E+02      982.00
  0.97276E+00  0.69078E+02    0.50000E+00  0.50000E+00 -0.10000E+01  0.00000E+00  0.00000E+00  0.00000E+00    0.26415E+02  0.17720E+02 -0.44135E+02  0.10890E+01 -0.12380E+01  0.10395E+02      982.00
