          Evm          Svm            E11          E22          E33          E23          E13          E12         SDEV11       SDEV22       SDEV33       SDEV23       SDEV13       SDEV12      TEMP
  0.00000E+00  0.56725E+02    0.00000E+00  0.00000E+00  0.00000E+00  0.00000E+00  0.00000E+00  0.00000E+00    0.15492E+02  0.18286E+02 -0.33778E+02 -0.48871E+01  0.13671E+01  0.13753E+02      982.00
  0.22330E-01  0.56678E+02    0.12500E-01  0.12500E-01 -0.25000E-01  0.00000E+00  0.00000E+00  0.00000E+00    0.15768E+02  0.18012E+02 -0.33780E+02 -0.44924E+01  0.15331E+01  0.13828E+02      982.00
  0.44680E-01  0.56771E+02    0.25000E-01  0.25000E-01 -0.50000E-01  0.00000E+00  0.00000E+00  0.00000E+00    0.15988E+02  0.17843E+02 -0.33831E+02 -0.41811E+01  0.16423E+01  0.13960E+02      982.00
  0.67027E-01  0.56989E+02    0.37500E-01  0.37500E-01 -0.75000E-01  0.00000E+00  0.00000E+00  0.00000E+00    0.16176E+02  0.17754E+02 -0.33930E+02 -0.39144E+01  0.17199E+01  0.14151E+02      982.00
  0.89353E-01  0.57311E+02    0.50000E-01  0.50000E-01 -0.10000E+00  0.00000E+00  0.00000E+00  0.00000E+00    0.16341E+02  0.17729E+02 -0.34070E+02 -0.36819E+01  0.17761E+01  0.14390E+02      982.00
  0.11165E+00  0.57703E+02    0.62500E-01  0.62500E-01 -0.12500E+00  0.00000E+00  0.00000E+00  0.00000E+00    0.16488E+02  0.17752E+02 -0.34240E+02 -0.34784E+01  0.18146E+01  0.14656E+02      982.00
  0.13390E+00  0.58138E+02    0.75000E-01  0.75000E-01 -0.15000E+00  0.00000E+00  0.00000E+00  0.00000E+00    0.16621E+02  0.17809E+02 -0.34430E+02 -0.32972E+01  0.18384E+01  0.14934E+02      982.00
  0.15611E+00  0.58608E+02    0.87500E-01  0.87500E-01 -0.17500E+00  0.00000E+00  0.00000E+00  0.00000E+00    0.16743E+02  0.17892E+02 -0.34635E+02 -0.31456E+01  0.18446E+01  0.15221E+02      982.00
  0.17827E+00  0.59092E+02    0.10000E+00  0.10000E+00 -0.20000E+00  0.00000E+00  0.00000E+00  0.00000E+00    0.16860E+02  0.17987E+02 -0.34847E+02 -0.30148E+01  0.18433E+01  0.15505E+02      982.00
  0.20038E+00  0.59562E+02    0.11250E+00  0.11250E+00 -0.22500E+00  0.00000E+00  0.00000E+00  0.00000E+00    0.16972E+02  0.18085E+02 -0.35057E+02 -0.28936E+01  0.18397E+01  0.15772E+02      982.00
  0.22245E+00  0.60036E+02    0.12500E+00  0.12500E+00 -0.25000E+00  0.00000E+00  0.00000E+00  0.00000E+00    0.17082E+02  0.18188E+02 -0.35270E+02 -0.27987E+01  0.18298E+01  0.16030E+02      982.00
  0.24448E+00  0.60479E+02    0.13750E+00  0.13750E+00 -0.27500E+00  0.00000E+00  0.00000E+00  0.00000E+00    0.17188E+02  0.18284E+02 -0.35472E+02 -0.27067E+01  0.18188E+01  0.16266E+02      982.00
  0.26648E+00  0.60910E+02    0.15000E+00  0.15000E+00 -0.30000E+00  0.00000E+00  0.00000E+00  0.00000E+00    0.17296E+02  0.18377E+02 -0.35673E+02 -0.26400E+01  0.18065E+01  0.16485E+02      982.00
  0.28844E+00  0.61314E+02    0.16250E+00  0.16250E+00 -0.32500E+00  0.00000E+00  0.00000E+00  0.00000E+00    0.17401E+02  0.18460E+02 -0.35861E+02 -0.25706E+01  0.17929E+01  0.16689E+02      982.00
  0.31037E+00  0.61689E+02    0.17500E+00  0.17500E+00 -0.35000E+00  0.00000E+00  0.00000E+00  0.00000E+00    0.17505E+02  0.18537E+02 -0.36042E+02 -0.25243E+01  0.17814E+01  0.16866E+02      982.00
  0.33228E+00  0.62036E+02    0.18750E+00  0.18750E+00 -0.37500E+00  0.00000E+00  0.00000E+00  0.00000E+00    0.17607E+02  0.18605E+02 -0.36212E+02 -0.24852E+01  0.17702E+01  0.17023E+02      982.00
  0.35417E+00  0.62366E+02    0.20000E+00  0.20000E+00 -0.40000E+00  0.00000E+00  0.00000E+00  0.00000E+00    0.17712E+02  0.18661E+02 -0.36373E+02 -0.24397E+01  0.17568E+01  0.17175E+02      982.00
  0.37604E+00  0.62657E+02    0.21250E+00  0.21250E+00 -0.42500E+00  0.00000E+00  0.00000E+00  0.00000E+00    0.17811E+02  0.18711E+02 -0.36522E+02 -0.24114E+01  0.17476E+01  0.17297E+02      982.00
  0.39790E+00  0.62922E+02    0.22500E+00  0.22500E+00 -0.45000E+00  0.00000E+00  0.00000E+00  0.00000E+00    0.17906E+02  0.18753E+02 -0.36659E+02 -0.23876E+01  0.17389E+01  0.17404E+02      982.00
  0.41975E+00  0.63163E+02    0.23750E+00  0.23750E+00 -0.47500E+00  0.00000E+00  0.00000E+00  0.00000E+00    0.17998E+02  0.18788E+02 -0.36786E+02 -0.23658E+01  0.17306E+01  0.17498E+02      982.00
  0.44159E+00  0.63384E+02    0.25000E+00  0.25000E+00 -0.50000E+00  0.00000E+00  0.00000E+00  0.00000E+00    0.18088E+02  0.18817E+02 -0.36905E+02 -0.23475E+01  0.17231E+01  0.17581E+02      982.00
  0.46342E+00  0.63550E+02    0.26250E+00  0.26250E+00 -0.52500E+00  0.00000E+00  0.00000E+00  0.00000E+00    0.18163E+02  0.18833E+02 -0.36996E+02 -0.23329E+01  0.17168E+01  0.17640E+02      982.00
  0.48525E+00  0.63739E+02    0.27500E+00  0.27500E+00 -0.55000E+00  0.00000E+00  0.00000E+00  0.00000E+00    0.18248E+02  0.18852E+02 -0.37100E+02 -0.23185E+01  0.17103E+01  0.17706E+02      982.00
  0.50708E+00  0.63932E+02    0.28750E+00  0.28750E+00 -0.57500E+00  0.00000E+00  0.00000E+00  0.00000E+00    0.18346E+02  0.18859E+02 -0.37205E+02 -0.22990E+01  0.17019E+01  0.17777E+02      982.00
  0.52890E+00  0.64087E+02    0.30000E+00  0.30000E+00 -0.60000E+00  0.00000E+00  0.00000E+00  0.00000E+00    0.18427E+02  0.18866E+02 -0.37294E+02 -0.22866E+01  0.16964E+01  0.17826E+02      982.00
  0.55073E+00  0.64229E+02    0.31250E+00  0.31250E+00 -0.62500E+00  0.00000E+00  0.00000E+00  0.00000E+00    0.18505E+02  0.18871E+02 -0.37376E+02 -0.22760E+01  0.16912E+01  0.17870E+02      982.00
  0.57255E+00  0.64359E+02    0.32500E+00  0.32500E+00 -0.65000E+00  0.00000E+00  0.00000E+00  0.00000E+00    0.18579E+02  0.18873E+02 -0.37452E+02 -0.22662E+01  0.16861E+01  0.17908E+02      982.00
  0.59437E+00  0.64479E+02    0.33750E+00  0.33750E+00 -0.67500E+00  0.00000E+00  0.00000E+00  0.00000E+00    0.18651E+02  0.18872E+02 -0.37523E+02 -0.22573E+01  0.16814E+01  0.17942E+02      982.00
  0.61619E+00  0.64589E+02    0.35000E+00  0.35000E+00 -0.70000E+00  0.00000E+00  0.00000E+00  0.00000E+00    0.18721E+02  0.18868E+02 -0.37589E+02 -0.22491E+01  0.16769E+01  0.17973E+02      982.00
  0.63802E+00  0.64691E+02    0.36250E+00  0.36250E+00 -0.72500E+00  0.00000E+00  0.00000E+00  0.00000E+00    0.18788E+02  0.18862E+02 -0.37650E+02 -0.22415E+01  0.16728E+01  0.17999E+02      982.00
  0.65984E+00  0.64784E+02    0.37500E+00  0.37500E+00 -0.75000E+00  0.00000E+00  0.00000E+00  0.00000E+00    0.18853E+02  0.18855E+02 -0.37707E+02 -0.22345E+01  0.16689E+01  0.18023E+02      982.00
  0.68167E+00  0.64871E+02    0.38750E+00  0.38750E+00 -0.77500E+00  0.00000E+00  0.00000E+00  0.00000E+00    0.18915E+02  0.18845E+02 -0.37761E+02 -0.22280E+01  0.16652E+01  0.18045E+02      982.00
  0.70350E+00  0.64921E+02    0.40000E+00  0.40000E+00 -0.80000E+00  0.00000E+00  0.00000E+00  0.00000E+00    0.18960E+02  0.18832E+02 -0.37792E+02 -0.22245E+01  0.16636E+01  0.18056E+02      982.00
  0.72533E+00  0.65015E+02    0.41250E+00  0.41250E+00 -0.82500E+00  0.00000E+00  0.00000E+00  0.00000E+00    0.19042E+02  0.18806E+02 -0.37849E+02 -0.22155E+01  0.16590E+01  0.18081E+02      982.00
  0.74716E+00  0.65086E+02    0.42500E+00  0.42500E+00 -0.85000E+00  0.00000E+00  0.00000E+00  0.00000E+00    0.19100E+02  0.18793E+02 -0.37894E+02 -0.22092E+01  0.16563E+01  0.18096E+02      982.00
  0.76899E+00  0.65149E+02    0.43750E+00  0.43750E+00 -0.87500E+00  0.00000E+00  0.00000E+00  0.00000E+00    0.19154E+02  0.18780E+02 -0.37934E+02 -0.22042E+01  0.16537E+01  0.18109E+02      982.00
  0.79083E+00  0.65209E+02    0.45000E+00  0.45000E+00 -0.90000E+00  0.00000E+00  0.00000E+00  0.00000E+00    0.19206E+02  0.18765E+02 -0.37972E+02 -0.21998E+01  0.16513E+01  0.18122E+02      982.00
  0.81266E+00  0.65264E+02    0.46250E+00  0.46250E+00 -0.92500E+00  0.00000E+00  0.00000E+00  0.00000E+00    0.19256E+02  0.18750E+02 -0.38007E+02 -0.21959E+01  0.16490E+01  0.18133E+02      982.00
  0.83450E+00  0.65316E+02    0.47500E+00  0.47500E+00 -0.95000E+00  0.00000E+00  0.00000E+00  0.00000E+00    0.19305E+02  0.18735E+02 -0.38040E+02 -0.21923E+01  0.16469E+01  0.18143E+02      982.00
  0.85634E+00  0.65364E+02    0.48750E+00  0.48750E+00 -0.97500E+00  0.00000E+00  0.00000E+00  0.00000E+00    0.19352E+02  0.18719E+02 -0.38071E+02 -0.21890E+01  0.16451E+01  0.18152E+02      982.00
  0.87818E+00  0.65372E+02    0.50000E+00  0.50000E+00 -0.10000E+01  0.00000E+00  0.00000E+00  0.00000E+00    0.19336E+02  0.18737E+02 -0.38073E+02 -0.21884E+01  0.16488E+01  0.18158E+02      982.00
