          Evm          Svm            E11          E22          E33          E23          E13          E12         SDEV11       SDEV22       SDEV33       SDEV23       SDEV13       SDEV12      TEMP
  0.00000E+00  0.53155E+02    0.00000E+00  0.00000E+00  0.00000E+00  0.00000E+00  0.00000E+00  0.00000E+00    0.87941E+01  0.24170E+02 -0.32964E+02 -0.28756E+01 -0.75604E+01  0.15185E+01      982.00
  0.23256E-01  0.53326E+02    0.12500E-01  0.12500E-01 -0.25000E-01  0.00000E+00  0.00000E+00  0.00000E+00    0.89231E+01  0.24122E+02 -0.33045E+02 -0.29832E+01 -0.78255E+01  0.10135E+01      982.00
  0.46494E-01  0.53514E+02    0.25000E-01  0.25000E-01 -0.50000E-01  0.00000E+00  0.00000E+00  0.00000E+00    0.90758E+01  0.24068E+02 -0.33144E+02 -0.30867E+01 -0.80449E+01  0.50724E+00      982.00
  0.69719E-01  0.53712E+02    0.37500E-01  0.37500E-01 -0.75000E-01  0.00000E+00  0.00000E+00  0.00000E+00    0.92526E+01  0.24005E+02 -0.33258E+02 -0.31552E+01 -0.82284E+01 -0.43139E-01      982.00
  0.92939E-01  0.53909E+02    0.50000E-01  0.50000E-01 -0.10000E+00  0.00000E+00  0.00000E+00  0.00000E+00    0.94580E+01  0.23922E+02 -0.33380E+02 -0.31666E+01 -0.83826E+01 -0.66018E+00      982.00
  0.11616E+00  0.54111E+02    0.62500E-01  0.62500E-01 -0.12500E+00  0.00000E+00  0.00000E+00  0.00000E+00    0.97002E+01  0.23811E+02 -0.33511E+02 -0.31169E+01 -0.85112E+01 -0.13507E+01      982.00
  0.13938E+00  0.54296E+02    0.75000E-01  0.75000E-01 -0.15000E+00  0.00000E+00  0.00000E+00  0.00000E+00    0.99888E+01  0.23644E+02 -0.33633E+02 -0.29946E+01 -0.86164E+01 -0.21165E+01      982.00
  0.16261E+00  0.54388E+02    0.87500E-01  0.87500E-01 -0.17500E+00  0.00000E+00  0.00000E+00  0.00000E+00    0.10357E+02  0.23358E+02 -0.33715E+02 -0.27769E+01 -0.86590E+01 -0.29181E+01      982.00
  0.18586E+00  0.54365E+02    0.10000E+00  0.10000E+00 -0.20000E+00  0.00000E+00  0.00000E+00  0.00000E+00    0.10827E+02  0.22940E+02 -0.33766E+02 -0.24404E+01 -0.85793E+01 -0.37165E+01      982.00
  0.20915E+00  0.54289E+02    0.11250E+00  0.11250E+00 -0.22500E+00  0.00000E+00  0.00000E+00  0.00000E+00    0.11390E+02  0.22422E+02 -0.33812E+02 -0.19690E+01 -0.83779E+01 -0.45255E+01      982.00
  0.23251E+00  0.54237E+02    0.12500E+00  0.12500E+00 -0.25000E+00  0.00000E+00  0.00000E+00  0.00000E+00    0.12035E+02  0.21843E+02 -0.33878E+02 -0.13765E+01 -0.80755E+01 -0.53490E+01      982.00
  0.25593E+00  0.54258E+02    0.13750E+00  0.13750E+00 -0.27500E+00  0.00000E+00  0.00000E+00  0.00000E+00    0.12744E+02  0.21224E+02 -0.33968E+02 -0.69055E+00 -0.77032E+01 -0.61764E+01      982.00
  0.27941E+00  0.54371E+02    0.15000E+00  0.15000E+00 -0.30000E+00  0.00000E+00  0.00000E+00  0.00000E+00    0.13493E+02  0.20586E+02 -0.34079E+02  0.50693E-01 -0.72859E+01 -0.69808E+01      982.00
  0.30291E+00  0.54612E+02    0.16250E+00  0.16250E+00 -0.32500E+00  0.00000E+00  0.00000E+00  0.00000E+00    0.14265E+02  0.19962E+02 -0.34227E+02  0.80474E+00 -0.68473E+01 -0.77383E+01      982.00
  0.32641E+00  0.54967E+02    0.17500E+00  0.17500E+00 -0.35000E+00  0.00000E+00  0.00000E+00  0.00000E+00    0.15032E+02  0.19377E+02 -0.34409E+02  0.15313E+01 -0.64071E+01 -0.84294E+01      982.00
  0.34989E+00  0.55418E+02    0.18750E+00  0.18750E+00 -0.37500E+00  0.00000E+00  0.00000E+00  0.00000E+00    0.15772E+02  0.18846E+02 -0.34619E+02  0.22031E+01 -0.59797E+01 -0.90500E+01      982.00
  0.37331E+00  0.55936E+02    0.20000E+00  0.20000E+00 -0.40000E+00  0.00000E+00  0.00000E+00  0.00000E+00    0.16477E+02  0.18378E+02 -0.34855E+02  0.28037E+01 -0.55688E+01 -0.95937E+01      982.00
  0.39668E+00  0.56501E+02    0.21250E+00  0.21250E+00 -0.42500E+00  0.00000E+00  0.00000E+00  0.00000E+00    0.17146E+02  0.17966E+02 -0.35112E+02  0.33358E+01 -0.51792E+01 -0.10067E+02      982.00
  0.41998E+00  0.57099E+02    0.22500E+00  0.22500E+00 -0.45000E+00  0.00000E+00  0.00000E+00  0.00000E+00    0.17778E+02  0.17614E+02 -0.35392E+02  0.37983E+01 -0.48111E+01 -0.10476E+02      982.00
  0.44323E+00  0.57711E+02    0.23750E+00  0.23750E+00 -0.47500E+00  0.00000E+00  0.00000E+00  0.00000E+00    0.18376E+02  0.17310E+02 -0.35686E+02  0.41983E+01 -0.44640E+01 -0.10827E+02      982.00
  0.46642E+00  0.58327E+02    0.25000E+00  0.25000E+00 -0.50000E+00  0.00000E+00  0.00000E+00  0.00000E+00    0.18943E+02  0.17049E+02 -0.35992E+02  0.45435E+01 -0.41363E+01 -0.11126E+02      982.00
  0.48956E+00  0.58936E+02    0.26250E+00  0.26250E+00 -0.52500E+00  0.00000E+00  0.00000E+00  0.00000E+00    0.19483E+02  0.16822E+02 -0.36305E+02  0.48412E+01 -0.38259E+01 -0.11377E+02      982.00
  0.51266E+00  0.59543E+02    0.27500E+00  0.27500E+00 -0.55000E+00  0.00000E+00  0.00000E+00  0.00000E+00    0.19999E+02  0.16628E+02 -0.36627E+02  0.50957E+01 -0.35331E+01 -0.11591E+02      982.00
  0.53572E+00  0.60132E+02    0.28750E+00  0.28750E+00 -0.57500E+00  0.00000E+00  0.00000E+00  0.00000E+00    0.20493E+02  0.16458E+02 -0.36951E+02  0.53140E+01 -0.32556E+01 -0.11762E+02      982.00
  0.55877E+00  0.60691E+02    0.30000E+00  0.30000E+00 -0.60000E+00  0.00000E+00  0.00000E+00  0.00000E+00    0.20964E+02  0.16303E+02 -0.37267E+02  0.55002E+01 -0.29923E+01 -0.11897E+02      982.00
  0.58179E+00  0.61242E+02    0.31250E+00  0.31250E+00 -0.62500E+00  0.00000E+00  0.00000E+00  0.00000E+00    0.21420E+02  0.16169E+02 -0.37589E+02  0.56581E+01 -0.27425E+01 -0.12002E+02      982.00
  0.60481E+00  0.61777E+02    0.32500E+00  0.32500E+00 -0.65000E+00  0.00000E+00  0.00000E+00  0.00000E+00    0.21857E+02  0.16055E+02 -0.37912E+02  0.57872E+01 -0.25086E+01 -0.12079E+02      982.00
  0.62782E+00  0.62281E+02    0.33750E+00  0.33750E+00 -0.67500E+00  0.00000E+00  0.00000E+00  0.00000E+00    0.22275E+02  0.15949E+02 -0.38225E+02  0.58952E+01 -0.22877E+01 -0.12130E+02      982.00
  0.65084E+00  0.62756E+02    0.35000E+00  0.35000E+00 -0.70000E+00  0.00000E+00  0.00000E+00  0.00000E+00    0.22680E+02  0.15848E+02 -0.38529E+02  0.59865E+01 -0.20762E+01 -0.12151E+02      982.00
  0.67386E+00  0.63219E+02    0.36250E+00  0.36250E+00 -0.72500E+00  0.00000E+00  0.00000E+00  0.00000E+00    0.23070E+02  0.15763E+02 -0.38833E+02  0.60561E+01 -0.18802E+01 -0.12152E+02      982.00
  0.69690E+00  0.63663E+02    0.37500E+00  0.37500E+00 -0.75000E+00  0.00000E+00  0.00000E+00  0.00000E+00    0.23452E+02  0.15679E+02 -0.39132E+02  0.61182E+01 -0.16903E+01 -0.12131E+02      982.00
  0.71995E+00  0.64079E+02    0.38750E+00  0.38750E+00 -0.77500E+00  0.00000E+00  0.00000E+00  0.00000E+00    0.23816E+02  0.15604E+02 -0.39420E+02  0.61613E+01 -0.15164E+01 -0.12089E+02      982.00
  0.74302E+00  0.64469E+02    0.40000E+00  0.40000E+00 -0.80000E+00  0.00000E+00  0.00000E+00  0.00000E+00    0.24164E+02  0.15532E+02 -0.39696E+02  0.61929E+01 -0.13536E+01 -0.12032E+02      982.00
  0.76611E+00  0.64842E+02    0.41250E+00  0.41250E+00 -0.82500E+00  0.00000E+00  0.00000E+00  0.00000E+00    0.24504E+02  0.15463E+02 -0.39967E+02  0.62170E+01 -0.12015E+01 -0.11956E+02      982.00
  0.78922E+00  0.65203E+02    0.42500E+00  0.42500E+00 -0.85000E+00  0.00000E+00  0.00000E+00  0.00000E+00    0.24832E+02  0.15401E+02 -0.40234E+02  0.62308E+01 -0.10595E+01 -0.11870E+02      982.00
  0.81236E+00  0.65534E+02    0.43750E+00  0.43750E+00 -0.87500E+00  0.00000E+00  0.00000E+00  0.00000E+00    0.25145E+02  0.15340E+02 -0.40485E+02  0.62386E+01 -0.92862E+00 -0.11767E+02      982.00
  0.83553E+00  0.65849E+02    0.45000E+00  0.45000E+00 -0.90000E+00  0.00000E+00  0.00000E+00  0.00000E+00    0.25449E+02  0.15280E+02 -0.40729E+02  0.62392E+01 -0.80576E+00 -0.11653E+02      982.00
  0.85872E+00  0.66144E+02    0.46250E+00  0.46250E+00 -0.92500E+00  0.00000E+00  0.00000E+00  0.00000E+00    0.25741E+02  0.15222E+02 -0.40963E+02  0.62356E+01 -0.69161E+00 -0.11528E+02      982.00
  0.88194E+00  0.66427E+02    0.47500E+00  0.47500E+00 -0.95000E+00  0.00000E+00  0.00000E+00  0.00000E+00    0.26022E+02  0.15168E+02 -0.41190E+02  0.62261E+01 -0.58640E+00 -0.11395E+02      982.00
  0.90520E+00  0.66691E+02    0.48750E+00  0.48750E+00 -0.97500E+00  0.00000E+00  0.00000E+00  0.00000E+00    0.26292E+02  0.15114E+02 -0.41406E+02  0.62130E+01 -0.48937E+00 -0.11253E+02      982.00
  0.92848E+00  0.66940E+02    0.50000E+00  0.50000E+00 -0.10000E+01  0.00000E+00  0.00000E+00  0.00000E+00    0.26552E+02  0.15063E+02 -0.41615E+02  0.61972E+01 -0.40002E+00 -0.11102E+02      982.00
