          Evm          Svm            E11          E22          E33          E23          E13          E12         SDEV11       SDEV22       SDEV33       SDEV23       SDEV13       SDEV12      TEMP
  0.00000E+00  0.67809E+02    0.00000E+00  0.00000E+00  0.00000E+00  0.00000E+00  0.00000E+00  0.00000E+00    0.22011E+02  0.22582E+02 -0.44594E+02 -0.74222E+00 -0.20026E+01 -0.60501E+01      982.00
  0.24661E-01  0.67582E+02    0.12500E-01  0.12500E-01 -0.25000E-01  0.00000E+00  0.00000E+00  0.00000E+00    0.21817E+02  0.22657E+02 -0.44474E+02 -0.78165E+00 -0.19977E+01 -0.58512E+01      982.00
  0.49339E-01  0.67382E+02    0.25000E-01  0.25000E-01 -0.50000E-01  0.00000E+00  0.00000E+00  0.00000E+00    0.21659E+02  0.22731E+02 -0.44390E+02 -0.79465E+00 -0.19704E+01 -0.55497E+01      982.00
  0.74043E-01  0.67234E+02    0.37500E-01  0.37500E-01 -0.75000E-01  0.00000E+00  0.00000E+00  0.00000E+00    0.21532E+02  0.22822E+02 -0.44355E+02 -0.82292E+00 -0.19304E+01 -0.51466E+01      982.00
  0.98782E-01  0.67127E+02    0.50000E-01  0.50000E-01 -0.10000E+00  0.00000E+00  0.00000E+00  0.00000E+00    0.21435E+02  0.22911E+02 -0.44345E+02 -0.89292E+00 -0.19034E+01 -0.47081E+01      982.00
  0.12356E+00  0.67088E+02    0.62500E-01  0.62500E-01 -0.12500E+00  0.00000E+00  0.00000E+00  0.00000E+00    0.21369E+02  0.22997E+02 -0.44365E+02 -0.10255E+01 -0.19207E+01 -0.43184E+01      982.00
  0.14835E+00  0.67107E+02    0.75000E-01  0.75000E-01 -0.15000E+00  0.00000E+00  0.00000E+00  0.00000E+00    0.21324E+02  0.23080E+02 -0.44404E+02 -0.12032E+01 -0.19813E+01 -0.40183E+01      982.00
  0.17317E+00  0.67180E+02    0.87500E-01  0.87500E-01 -0.17500E+00  0.00000E+00  0.00000E+00  0.00000E+00    0.21294E+02  0.23168E+02 -0.44462E+02 -0.14000E+01 -0.20707E+01 -0.38204E+01      982.00
  0.19799E+00  0.67296E+02    0.10000E+00  0.10000E+00 -0.20000E+00  0.00000E+00  0.00000E+00  0.00000E+00    0.21276E+02  0.23257E+02 -0.44534E+02 -0.15943E+01 -0.21778E+01 -0.37256E+01      982.00
  0.22280E+00  0.67447E+02    0.11250E+00  0.11250E+00 -0.22500E+00  0.00000E+00  0.00000E+00  0.00000E+00    0.21258E+02  0.23360E+02 -0.44617E+02 -0.17782E+01 -0.22894E+01 -0.37173E+01      982.00
  0.24761E+00  0.67625E+02    0.12500E+00  0.12500E+00 -0.25000E+00  0.00000E+00  0.00000E+00  0.00000E+00    0.21240E+02  0.23470E+02 -0.44710E+02 -0.19442E+01 -0.24026E+01 -0.37891E+01      982.00
  0.27240E+00  0.67816E+02    0.13750E+00  0.13750E+00 -0.27500E+00  0.00000E+00  0.00000E+00  0.00000E+00    0.21228E+02  0.23579E+02 -0.44807E+02 -0.20809E+01 -0.25091E+01 -0.39045E+01      982.00
  0.29718E+00  0.68015E+02    0.15000E+00  0.15000E+00 -0.30000E+00  0.00000E+00  0.00000E+00  0.00000E+00    0.21213E+02  0.23693E+02 -0.44906E+02 -0.21974E+01 -0.26091E+01 -0.40568E+01      982.00
  0.32194E+00  0.68217E+02    0.16250E+00  0.16250E+00 -0.32500E+00  0.00000E+00  0.00000E+00  0.00000E+00    0.21192E+02  0.23811E+02 -0.45003E+02 -0.22963E+01 -0.27024E+01 -0.42350E+01      982.00
  0.34668E+00  0.68414E+02    0.17500E+00  0.17500E+00 -0.35000E+00  0.00000E+00  0.00000E+00  0.00000E+00    0.21166E+02  0.23930E+02 -0.45095E+02 -0.23800E+01 -0.27891E+01 -0.44302E+01      982.00
  0.37139E+00  0.68605E+02    0.18750E+00  0.18750E+00 -0.37500E+00  0.00000E+00  0.00000E+00  0.00000E+00    0.21132E+02  0.24049E+02 -0.45181E+02 -0.24511E+01 -0.28699E+01 -0.46357E+01      982.00
  0.39609E+00  0.68783E+02    0.20000E+00  0.20000E+00 -0.40000E+00  0.00000E+00  0.00000E+00  0.00000E+00    0.21085E+02  0.24172E+02 -0.45257E+02 -0.25114E+01 -0.29415E+01 -0.48544E+01      982.00
  0.42077E+00  0.68952E+02    0.21250E+00  0.21250E+00 -0.42500E+00  0.00000E+00  0.00000E+00  0.00000E+00    0.21037E+02  0.24290E+02 -0.45327E+02 -0.25631E+01 -0.30120E+01 -0.50642E+01      982.00
  0.44542E+00  0.69108E+02    0.22500E+00  0.22500E+00 -0.45000E+00  0.00000E+00  0.00000E+00  0.00000E+00    0.20983E+02  0.24405E+02 -0.45387E+02 -0.26077E+01 -0.30790E+01 -0.52711E+01      982.00
  0.47004E+00  0.69252E+02    0.23750E+00  0.23750E+00 -0.47500E+00  0.00000E+00  0.00000E+00  0.00000E+00    0.20922E+02  0.24517E+02 -0.45439E+02 -0.26466E+01 -0.31427E+01 -0.54728E+01      982.00
  0.49465E+00  0.69382E+02    0.25000E+00  0.25000E+00 -0.50000E+00  0.00000E+00  0.00000E+00  0.00000E+00    0.20855E+02  0.24627E+02 -0.45482E+02 -0.26807E+01 -0.32037E+01 -0.56678E+01      982.00
  0.51923E+00  0.69500E+02    0.26250E+00  0.26250E+00 -0.52500E+00  0.00000E+00  0.00000E+00  0.00000E+00    0.20783E+02  0.24735E+02 -0.45518E+02 -0.27106E+01 -0.32624E+01 -0.58549E+01      982.00
  0.54379E+00  0.69606E+02    0.27500E+00  0.27500E+00 -0.55000E+00  0.00000E+00  0.00000E+00  0.00000E+00    0.20707E+02  0.24840E+02 -0.45546E+02 -0.27370E+01 -0.33190E+01 -0.60332E+01      982.00
  0.56833E+00  0.69702E+02    0.28750E+00  0.28750E+00 -0.57500E+00  0.00000E+00  0.00000E+00  0.00000E+00    0.20626E+02  0.24942E+02 -0.45568E+02 -0.27603E+01 -0.33740E+01 -0.62024E+01      982.00
  0.59285E+00  0.69796E+02    0.30000E+00  0.30000E+00 -0.60000E+00  0.00000E+00  0.00000E+00  0.00000E+00    0.20528E+02  0.25056E+02 -0.45584E+02 -0.27820E+01 -0.34285E+01 -0.63882E+01      982.00
  0.61734E+00  0.69871E+02    0.31250E+00  0.31250E+00 -0.62500E+00  0.00000E+00  0.00000E+00  0.00000E+00    0.20440E+02  0.25154E+02 -0.45594E+02 -0.27992E+01 -0.34799E+01 -0.65359E+01      982.00
  0.64181E+00  0.69938E+02    0.32500E+00  0.32500E+00 -0.65000E+00  0.00000E+00  0.00000E+00  0.00000E+00    0.20350E+02  0.25250E+02 -0.45600E+02 -0.28140E+01 -0.35308E+01 -0.66738E+01      982.00
  0.66626E+00  0.69996E+02    0.33750E+00  0.33750E+00 -0.67500E+00  0.00000E+00  0.00000E+00  0.00000E+00    0.20258E+02  0.25343E+02 -0.45601E+02 -0.28265E+01 -0.35807E+01 -0.68026E+01      982.00
  0.69069E+00  0.70048E+02    0.35000E+00  0.35000E+00 -0.70000E+00  0.00000E+00  0.00000E+00  0.00000E+00    0.20164E+02  0.25436E+02 -0.45599E+02 -0.28367E+01 -0.36297E+01 -0.69223E+01      982.00
  0.71510E+00  0.70093E+02    0.36250E+00  0.36250E+00 -0.72500E+00  0.00000E+00  0.00000E+00  0.00000E+00    0.20067E+02  0.25527E+02 -0.45594E+02 -0.28449E+01 -0.36782E+01 -0.70333E+01      982.00
  0.73949E+00  0.70140E+02    0.37500E+00  0.37500E+00 -0.75000E+00  0.00000E+00  0.00000E+00  0.00000E+00    0.19950E+02  0.25635E+02 -0.45585E+02 -0.28525E+01 -0.37334E+01 -0.71582E+01      982.00
  0.76386E+00  0.70174E+02    0.38750E+00  0.38750E+00 -0.77500E+00  0.00000E+00  0.00000E+00  0.00000E+00    0.19851E+02  0.25725E+02 -0.45575E+02 -0.28554E+01 -0.37796E+01 -0.72500E+01      982.00
  0.78822E+00  0.70202E+02    0.40000E+00  0.40000E+00 -0.80000E+00  0.00000E+00  0.00000E+00  0.00000E+00    0.19751E+02  0.25813E+02 -0.45564E+02 -0.28562E+01 -0.38255E+01 -0.73334E+01      982.00
  0.81256E+00  0.70226E+02    0.41250E+00  0.41250E+00 -0.82500E+00  0.00000E+00  0.00000E+00  0.00000E+00    0.19650E+02  0.25901E+02 -0.45550E+02 -0.28550E+01 -0.38708E+01 -0.74091E+01      982.00
  0.83688E+00  0.70247E+02    0.42500E+00  0.42500E+00 -0.85000E+00  0.00000E+00  0.00000E+00  0.00000E+00    0.19547E+02  0.25988E+02 -0.45536E+02 -0.28517E+01 -0.39155E+01 -0.74775E+01      982.00
  0.86119E+00  0.70263E+02    0.43750E+00  0.43750E+00 -0.87500E+00  0.00000E+00  0.00000E+00  0.00000E+00    0.19443E+02  0.26076E+02 -0.45520E+02 -0.28466E+01 -0.39595E+01 -0.75388E+01      982.00
  0.88548E+00  0.70279E+02    0.45000E+00  0.45000E+00 -0.90000E+00  0.00000E+00  0.00000E+00  0.00000E+00    0.19357E+02  0.26153E+02 -0.45510E+02 -0.28375E+01 -0.39927E+01 -0.75818E+01      982.00
  0.90977E+00  0.70285E+02    0.46250E+00  0.46250E+00 -0.92500E+00  0.00000E+00  0.00000E+00  0.00000E+00    0.19229E+02  0.26255E+02 -0.45484E+02 -0.28277E+01 -0.40423E+01 -0.76404E+01      982.00
  0.93404E+00  0.70246E+02    0.47500E+00  0.47500E+00 -0.95000E+00  0.00000E+00  0.00000E+00  0.00000E+00    0.19132E+02  0.26314E+02 -0.45445E+02 -0.28068E+01 -0.40550E+01 -0.76590E+01      982.00
  0.95830E+00  0.70203E+02    0.48750E+00  0.48750E+00 -0.97500E+00  0.00000E+00  0.00000E+00  0.00000E+00    0.19015E+02  0.26383E+02 -0.45398E+02 -0.27901E+01 -0.40835E+01 -0.76831E+01      982.00
  0.98255E+00  0.70161E+02    0.50000E+00  0.50000E+00 -0.10000E+01  0.00000E+00  0.00000E+00  0.00000E+00    0.18900E+02  0.26453E+02 -0.45353E+02 -0.27721E+01 -0.41120E+01 -0.77019E+01      982.00
