          Evm          Svm            E11          E22          E33          E23          E13          E12         SDEV11       SDEV22       SDEV33       SDEV23       SDEV13       SDEV12      TEMP
  0.00000E+00  0.56453E+02    0.00000E+00  0.00000E+00  0.00000E+00  0.00000E+00  0.00000E+00  0.00000E+00    0.18456E+02  0.15115E+02 -0.33571E+02 -0.16063E+01  0.53062E+01  0.13547E+02      982.00
  0.22300E-01  0.56420E+02    0.12500E-01  0.12500E-01 -0.25000E-01  0.00000E+00  0.00000E+00  0.00000E+00    0.18141E+02  0.15444E+02 -0.33585E+02 -0.17969E+01  0.48599E+01  0.13655E+02      982.00
  0.44622E-01  0.56513E+02    0.25000E-01  0.25000E-01 -0.50000E-01  0.00000E+00  0.00000E+00  0.00000E+00    0.17942E+02  0.15697E+02 -0.33639E+02 -0.19371E+01  0.45025E+01  0.13805E+02      982.00
  0.66944E-01  0.56724E+02    0.37500E-01  0.37500E-01 -0.75000E-01  0.00000E+00  0.00000E+00  0.00000E+00    0.17825E+02  0.15913E+02 -0.33738E+02 -0.20491E+01  0.41944E+01  0.14005E+02      982.00
  0.89248E-01  0.57031E+02    0.50000E-01  0.50000E-01 -0.10000E+00  0.00000E+00  0.00000E+00  0.00000E+00    0.17771E+02  0.16102E+02 -0.33874E+02 -0.21401E+01  0.39234E+01  0.14246E+02      982.00
  0.11152E+00  0.57413E+02    0.62500E-01  0.62500E-01 -0.12500E+00  0.00000E+00  0.00000E+00  0.00000E+00    0.17765E+02  0.16273E+02 -0.34039E+02 -0.22140E+01  0.36853E+01  0.14517E+02      982.00
  0.13375E+00  0.57845E+02    0.75000E-01  0.75000E-01 -0.15000E+00  0.00000E+00  0.00000E+00  0.00000E+00    0.17793E+02  0.16432E+02 -0.34225E+02 -0.22738E+01  0.34762E+01  0.14802E+02      982.00
  0.15594E+00  0.58305E+02    0.87500E-01  0.87500E-01 -0.17500E+00  0.00000E+00  0.00000E+00  0.00000E+00    0.17842E+02  0.16583E+02 -0.34425E+02 -0.23220E+01  0.32922E+01  0.15091E+02      982.00
  0.17808E+00  0.58779E+02    0.10000E+00  0.10000E+00 -0.20000E+00  0.00000E+00  0.00000E+00  0.00000E+00    0.17908E+02  0.16725E+02 -0.34633E+02 -0.23555E+01  0.31335E+01  0.15374E+02      982.00
  0.20018E+00  0.59250E+02    0.11250E+00  0.11250E+00 -0.22500E+00  0.00000E+00  0.00000E+00  0.00000E+00    0.17975E+02  0.16867E+02 -0.34842E+02 -0.23851E+01  0.29914E+01  0.15645E+02      982.00
  0.22223E+00  0.59707E+02    0.12500E+00  0.12500E+00 -0.25000E+00  0.00000E+00  0.00000E+00  0.00000E+00    0.18043E+02  0.17005E+02 -0.35048E+02 -0.24079E+01  0.28646E+01  0.15897E+02      982.00
  0.24424E+00  0.60157E+02    0.13750E+00  0.13750E+00 -0.27500E+00  0.00000E+00  0.00000E+00  0.00000E+00    0.18115E+02  0.17139E+02 -0.35253E+02 -0.24204E+01  0.27596E+01  0.16139E+02      982.00
  0.26622E+00  0.60586E+02    0.15000E+00  0.15000E+00 -0.30000E+00  0.00000E+00  0.00000E+00  0.00000E+00    0.18183E+02  0.17269E+02 -0.35452E+02 -0.24285E+01  0.26678E+01  0.16362E+02      982.00
  0.28816E+00  0.60979E+02    0.16250E+00  0.16250E+00 -0.32500E+00  0.00000E+00  0.00000E+00  0.00000E+00    0.18240E+02  0.17397E+02 -0.35638E+02 -0.24359E+01  0.25805E+01  0.16559E+02      982.00
  0.31008E+00  0.61359E+02    0.17500E+00  0.17500E+00 -0.35000E+00  0.00000E+00  0.00000E+00  0.00000E+00    0.18299E+02  0.17520E+02 -0.35819E+02 -0.24371E+01  0.25103E+01  0.16743E+02      982.00
  0.33197E+00  0.61713E+02    0.18750E+00  0.18750E+00 -0.37500E+00  0.00000E+00  0.00000E+00  0.00000E+00    0.18353E+02  0.17638E+02 -0.35991E+02 -0.24355E+01  0.24484E+01  0.16909E+02      982.00
  0.35384E+00  0.62031E+02    0.20000E+00  0.20000E+00 -0.40000E+00  0.00000E+00  0.00000E+00  0.00000E+00    0.18395E+02  0.17753E+02 -0.36149E+02 -0.24332E+01  0.23863E+01  0.17055E+02      982.00
  0.37569E+00  0.62335E+02    0.21250E+00  0.21250E+00 -0.42500E+00  0.00000E+00  0.00000E+00  0.00000E+00    0.18440E+02  0.17861E+02 -0.36301E+02 -0.24274E+01  0.23380E+01  0.17188E+02      982.00
  0.39753E+00  0.62615E+02    0.22500E+00  0.22500E+00 -0.45000E+00  0.00000E+00  0.00000E+00  0.00000E+00    0.18481E+02  0.17963E+02 -0.36444E+02 -0.24195E+01  0.22950E+01  0.17307E+02      982.00
  0.41936E+00  0.62869E+02    0.23750E+00  0.23750E+00 -0.47500E+00  0.00000E+00  0.00000E+00  0.00000E+00    0.18512E+02  0.18064E+02 -0.36576E+02 -0.24100E+01  0.22484E+01  0.17414E+02      982.00
  0.44117E+00  0.63102E+02    0.25000E+00  0.25000E+00 -0.50000E+00  0.00000E+00  0.00000E+00  0.00000E+00    0.18545E+02  0.18154E+02 -0.36700E+02 -0.23996E+01  0.22128E+01  0.17506E+02      982.00
  0.46298E+00  0.63320E+02    0.26250E+00  0.26250E+00 -0.52500E+00  0.00000E+00  0.00000E+00  0.00000E+00    0.18578E+02  0.18239E+02 -0.36817E+02 -0.23880E+01  0.21819E+01  0.17589E+02      982.00
  0.48479E+00  0.63497E+02    0.27500E+00  0.27500E+00 -0.55000E+00  0.00000E+00  0.00000E+00  0.00000E+00    0.18604E+02  0.18311E+02 -0.36915E+02 -0.23749E+01  0.21551E+01  0.17652E+02      982.00
  0.50659E+00  0.63683E+02    0.28750E+00  0.28750E+00 -0.57500E+00  0.00000E+00  0.00000E+00  0.00000E+00    0.18634E+02  0.18385E+02 -0.37019E+02 -0.23621E+01  0.21293E+01  0.17719E+02      982.00
  0.52839E+00  0.63847E+02    0.30000E+00  0.30000E+00 -0.60000E+00  0.00000E+00  0.00000E+00  0.00000E+00    0.18653E+02  0.18455E+02 -0.37108E+02 -0.23477E+01  0.20989E+01  0.17780E+02      982.00
  0.55018E+00  0.64006E+02    0.31250E+00  0.31250E+00 -0.62500E+00  0.00000E+00  0.00000E+00  0.00000E+00    0.18680E+02  0.18519E+02 -0.37199E+02 -0.23346E+01  0.20768E+01  0.17833E+02      982.00
  0.57198E+00  0.64164E+02    0.32500E+00  0.32500E+00 -0.65000E+00  0.00000E+00  0.00000E+00  0.00000E+00    0.18702E+02  0.18585E+02 -0.37288E+02 -0.23168E+01  0.20478E+01  0.17888E+02      982.00
  0.59377E+00  0.64297E+02    0.33750E+00  0.33750E+00 -0.67500E+00  0.00000E+00  0.00000E+00  0.00000E+00    0.18727E+02  0.18639E+02 -0.37366E+02 -0.23032E+01  0.20282E+01  0.17929E+02      982.00
  0.61556E+00  0.64419E+02    0.35000E+00  0.35000E+00 -0.70000E+00  0.00000E+00  0.00000E+00  0.00000E+00    0.18752E+02  0.18687E+02 -0.37439E+02 -0.22899E+01  0.20109E+01  0.17964E+02      982.00
  0.63736E+00  0.64531E+02    0.36250E+00  0.36250E+00 -0.72500E+00  0.00000E+00  0.00000E+00  0.00000E+00    0.18776E+02  0.18731E+02 -0.37507E+02 -0.22768E+01  0.19948E+01  0.17996E+02      982.00
  0.65915E+00  0.64635E+02    0.37500E+00  0.37500E+00 -0.75000E+00  0.00000E+00  0.00000E+00  0.00000E+00    0.18800E+02  0.18770E+02 -0.37571E+02 -0.22642E+01  0.19797E+01  0.18024E+02      982.00
  0.68095E+00  0.64732E+02    0.38750E+00  0.38750E+00 -0.77500E+00  0.00000E+00  0.00000E+00  0.00000E+00    0.18824E+02  0.18806E+02 -0.37630E+02 -0.22521E+01  0.19654E+01  0.18049E+02      982.00
  0.70275E+00  0.64821E+02    0.40000E+00  0.40000E+00 -0.80000E+00  0.00000E+00  0.00000E+00  0.00000E+00    0.18847E+02  0.18839E+02 -0.37686E+02 -0.22405E+01  0.19518E+01  0.18072E+02      982.00
  0.72455E+00  0.64904E+02    0.41250E+00  0.41250E+00 -0.82500E+00  0.00000E+00  0.00000E+00  0.00000E+00    0.18870E+02  0.18868E+02 -0.37738E+02 -0.22295E+01  0.19390E+01  0.18092E+02      982.00
  0.74636E+00  0.64981E+02    0.42500E+00  0.42500E+00 -0.85000E+00  0.00000E+00  0.00000E+00  0.00000E+00    0.18893E+02  0.18894E+02 -0.37787E+02 -0.22191E+01  0.19268E+01  0.18110E+02      982.00
  0.76816E+00  0.65063E+02    0.43750E+00  0.43750E+00 -0.87500E+00  0.00000E+00  0.00000E+00  0.00000E+00    0.18918E+02  0.18920E+02 -0.37839E+02 -0.22027E+01  0.19064E+01  0.18131E+02      982.00
  0.78997E+00  0.65108E+02    0.45000E+00  0.45000E+00 -0.90000E+00  0.00000E+00  0.00000E+00  0.00000E+00    0.18934E+02  0.18933E+02 -0.37867E+02 -0.21961E+01  0.18977E+01  0.18142E+02      982.00
  0.81178E+00  0.65173E+02    0.46250E+00  0.46250E+00 -0.92500E+00  0.00000E+00  0.00000E+00  0.00000E+00    0.18958E+02  0.18952E+02 -0.37910E+02 -0.21880E+01  0.18879E+01  0.18155E+02      982.00
  0.83359E+00  0.65230E+02    0.47500E+00  0.47500E+00 -0.95000E+00  0.00000E+00  0.00000E+00  0.00000E+00    0.18981E+02  0.18967E+02 -0.37947E+02 -0.21801E+01  0.18781E+01  0.18167E+02      982.00
  0.85541E+00  0.65284E+02    0.48750E+00  0.48750E+00 -0.97500E+00  0.00000E+00  0.00000E+00  0.00000E+00    0.19004E+02  0.18980E+02 -0.37983E+02 -0.21727E+01  0.18685E+01  0.18178E+02      982.00
  0.87723E+00  0.65305E+02    0.50000E+00  0.50000E+00 -0.10000E+01  0.00000E+00  0.00000E+00  0.00000E+00    0.19017E+02  0.18983E+02 -0.38000E+02 -0.21601E+01  0.18626E+01  0.18178E+02      982.00
