          Evm          Svm            E11          E22          E33          E23          E13          E12         SDEV11       SDEV22       SDEV33       SDEV23       SDEV13       SDEV12      TEMP
  0.00000E+00  0.61107E+02    0.00000E+00  0.00000E+00  0.00000E+00  0.00000E+00  0.00000E+00  0.00000E+00    0.26236E+02  0.12355E+02 -0.38591E+02 -0.54046E+00 -0.46154E+01 -0.76155E+01      982.00
  0.23682E-01  0.61427E+02    0.12500E-01  0.12500E-01 -0.25000E-01  0.00000E+00  0.00000E+00  0.00000E+00    0.26233E+02  0.12555E+02 -0.38788E+02 -0.72413E+00 -0.46547E+01 -0.77713E+01      982.00
  0.47362E-01  0.61835E+02    0.25000E-01  0.25000E-01 -0.50000E-01  0.00000E+00  0.00000E+00  0.00000E+00    0.26220E+02  0.12834E+02 -0.39054E+02 -0.90953E+00 -0.47356E+01 -0.79106E+01      982.00
  0.71046E-01  0.62145E+02    0.37500E-01  0.37500E-01 -0.75000E-01  0.00000E+00  0.00000E+00  0.00000E+00    0.26062E+02  0.13235E+02 -0.39297E+02 -0.11685E+01 -0.47844E+01 -0.79827E+01      982.00
  0.94759E-01  0.62281E+02    0.50000E-01  0.50000E-01 -0.10000E+00  0.00000E+00  0.00000E+00  0.00000E+00    0.25793E+02  0.13657E+02 -0.39450E+02 -0.13922E+01 -0.48465E+01 -0.79686E+01      982.00
  0.11851E+00  0.62463E+02    0.62500E-01  0.62500E-01 -0.12500E+00  0.00000E+00  0.00000E+00  0.00000E+00    0.25634E+02  0.13970E+02 -0.39603E+02 -0.14578E+01 -0.50148E+01 -0.79324E+01      982.00
  0.14229E+00  0.62767E+02    0.75000E-01  0.75000E-01 -0.15000E+00  0.00000E+00  0.00000E+00  0.00000E+00    0.25647E+02  0.14157E+02 -0.39803E+02 -0.13877E+01 -0.52492E+01 -0.79072E+01      982.00
  0.16607E+00  0.63100E+02    0.87500E-01  0.87500E-01 -0.17500E+00  0.00000E+00  0.00000E+00  0.00000E+00    0.25754E+02  0.14261E+02 -0.40015E+02 -0.12709E+01 -0.54481E+01 -0.78729E+01      982.00
  0.18985E+00  0.63501E+02    0.10000E+00  0.10000E+00 -0.20000E+00  0.00000E+00  0.00000E+00  0.00000E+00    0.25931E+02  0.14328E+02 -0.40259E+02 -0.11566E+01 -0.56257E+01 -0.78659E+01      982.00
  0.21362E+00  0.63935E+02    0.11250E+00  0.11250E+00 -0.22500E+00  0.00000E+00  0.00000E+00  0.00000E+00    0.26153E+02  0.14368E+02 -0.40522E+02 -0.10577E+01 -0.57618E+01 -0.78756E+01      982.00
  0.23739E+00  0.64390E+02    0.12500E+00  0.12500E+00 -0.25000E+00  0.00000E+00  0.00000E+00  0.00000E+00    0.26403E+02  0.14395E+02 -0.40797E+02 -0.97891E+00 -0.58586E+01 -0.78991E+01      982.00
  0.26115E+00  0.64854E+02    0.13750E+00  0.13750E+00 -0.27500E+00  0.00000E+00  0.00000E+00  0.00000E+00    0.26672E+02  0.14407E+02 -0.41079E+02 -0.91432E+00 -0.59218E+01 -0.79300E+01      982.00
  0.28490E+00  0.65320E+02    0.15000E+00  0.15000E+00 -0.30000E+00  0.00000E+00  0.00000E+00  0.00000E+00    0.26939E+02  0.14427E+02 -0.41366E+02 -0.87457E+00 -0.59573E+01 -0.79682E+01      982.00
  0.30865E+00  0.65775E+02    0.16250E+00  0.16250E+00 -0.32500E+00  0.00000E+00  0.00000E+00  0.00000E+00    0.27207E+02  0.14441E+02 -0.41648E+02 -0.84441E+00 -0.59717E+01 -0.80061E+01      982.00
  0.33240E+00  0.66217E+02    0.17500E+00  0.17500E+00 -0.35000E+00  0.00000E+00  0.00000E+00  0.00000E+00    0.27466E+02  0.14458E+02 -0.41924E+02 -0.82786E+00 -0.59700E+01 -0.80439E+01      982.00
  0.35614E+00  0.66642E+02    0.18750E+00  0.18750E+00 -0.37500E+00  0.00000E+00  0.00000E+00  0.00000E+00    0.27703E+02  0.14493E+02 -0.42196E+02 -0.82902E+00 -0.59523E+01 -0.80777E+01      982.00
  0.37988E+00  0.67046E+02    0.20000E+00  0.20000E+00 -0.40000E+00  0.00000E+00  0.00000E+00  0.00000E+00    0.27934E+02  0.14522E+02 -0.42456E+02 -0.83293E+00 -0.59259E+01 -0.81060E+01      982.00
  0.40363E+00  0.67431E+02    0.21250E+00  0.21250E+00 -0.42500E+00  0.00000E+00  0.00000E+00  0.00000E+00    0.28153E+02  0.14556E+02 -0.42708E+02 -0.84471E+00 -0.58885E+01 -0.81268E+01      982.00
  0.42738E+00  0.67781E+02    0.22500E+00  0.22500E+00 -0.45000E+00  0.00000E+00  0.00000E+00  0.00000E+00    0.28337E+02  0.14606E+02 -0.42943E+02 -0.86565E+00 -0.58440E+01 -0.81409E+01      982.00
  0.45114E+00  0.68117E+02    0.23750E+00  0.23750E+00 -0.47500E+00  0.00000E+00  0.00000E+00  0.00000E+00    0.28520E+02  0.14653E+02 -0.43173E+02 -0.88865E+00 -0.57877E+01 -0.81452E+01      982.00
  0.47491E+00  0.68403E+02    0.25000E+00  0.25000E+00 -0.50000E+00  0.00000E+00  0.00000E+00  0.00000E+00    0.28662E+02  0.14708E+02 -0.43370E+02 -0.91406E+00 -0.57429E+01 -0.81498E+01      982.00
  0.49868E+00  0.68711E+02    0.26250E+00  0.26250E+00 -0.52500E+00  0.00000E+00  0.00000E+00  0.00000E+00    0.28824E+02  0.14765E+02 -0.43589E+02 -0.94629E+00 -0.56718E+01 -0.81389E+01      982.00
  0.52247E+00  0.68932E+02    0.27500E+00  0.27500E+00 -0.55000E+00  0.00000E+00  0.00000E+00  0.00000E+00    0.28922E+02  0.14825E+02 -0.43747E+02 -0.96681E+00 -0.56299E+01 -0.81367E+01      982.00
  0.54627E+00  0.69166E+02    0.28750E+00  0.28750E+00 -0.57500E+00  0.00000E+00  0.00000E+00  0.00000E+00    0.29034E+02  0.14883E+02 -0.43917E+02 -0.99249E+00 -0.55720E+01 -0.81239E+01      982.00
  0.57008E+00  0.69381E+02    0.30000E+00  0.30000E+00 -0.60000E+00  0.00000E+00  0.00000E+00  0.00000E+00    0.29135E+02  0.14941E+02 -0.44076E+02 -0.10171E+01 -0.55132E+01 -0.81070E+01      982.00
  0.59391E+00  0.69578E+02    0.31250E+00  0.31250E+00 -0.62500E+00  0.00000E+00  0.00000E+00  0.00000E+00    0.29227E+02  0.14998E+02 -0.44224E+02 -0.10407E+01 -0.54543E+01 -0.80869E+01      982.00
  0.61774E+00  0.69759E+02    0.32500E+00  0.32500E+00 -0.65000E+00  0.00000E+00  0.00000E+00  0.00000E+00    0.29309E+02  0.15050E+02 -0.44359E+02 -0.10565E+01 -0.54064E+01 -0.80710E+01      982.00
  0.64159E+00  0.69927E+02    0.33750E+00  0.33750E+00 -0.67500E+00  0.00000E+00  0.00000E+00  0.00000E+00    0.29386E+02  0.15103E+02 -0.44488E+02 -0.10767E+01 -0.53493E+01 -0.80463E+01      982.00
  0.66545E+00  0.70081E+02    0.35000E+00  0.35000E+00 -0.70000E+00  0.00000E+00  0.00000E+00  0.00000E+00    0.29455E+02  0.15154E+02 -0.44609E+02 -0.10963E+01 -0.52925E+01 -0.80196E+01      982.00
  0.68932E+00  0.70223E+02    0.36250E+00  0.36250E+00 -0.72500E+00  0.00000E+00  0.00000E+00  0.00000E+00    0.29517E+02  0.15205E+02 -0.44722E+02 -0.11148E+01 -0.52366E+01 -0.79914E+01      982.00
  0.71320E+00  0.70353E+02    0.37500E+00  0.37500E+00 -0.75000E+00  0.00000E+00  0.00000E+00  0.00000E+00    0.29573E+02  0.15254E+02 -0.44827E+02 -0.11322E+01 -0.51817E+01 -0.79621E+01      982.00
  0.73709E+00  0.70473E+02    0.38750E+00  0.38750E+00 -0.77500E+00  0.00000E+00  0.00000E+00  0.00000E+00    0.29624E+02  0.15301E+02 -0.44925E+02 -0.11485E+01 -0.51280E+01 -0.79320E+01      982.00
  0.76100E+00  0.70584E+02    0.40000E+00  0.40000E+00 -0.80000E+00  0.00000E+00  0.00000E+00  0.00000E+00    0.29670E+02  0.15345E+02 -0.45015E+02 -0.11644E+01 -0.50767E+01 -0.79027E+01      982.00
  0.78491E+00  0.70678E+02    0.41250E+00  0.41250E+00 -0.82500E+00  0.00000E+00  0.00000E+00  0.00000E+00    0.29708E+02  0.15387E+02 -0.45095E+02 -0.11768E+01 -0.50274E+01 -0.78777E+01      982.00
  0.80884E+00  0.70773E+02    0.42500E+00  0.42500E+00 -0.85000E+00  0.00000E+00  0.00000E+00  0.00000E+00    0.29747E+02  0.15428E+02 -0.45175E+02 -0.11901E+01 -0.49779E+01 -0.78466E+01      982.00
  0.83278E+00  0.70803E+02    0.43750E+00  0.43750E+00 -0.87500E+00  0.00000E+00  0.00000E+00  0.00000E+00    0.29752E+02  0.15467E+02 -0.45220E+02 -0.11964E+01 -0.49125E+01 -0.77999E+01      982.00
  0.85673E+00  0.70818E+02    0.45000E+00  0.45000E+00 -0.90000E+00  0.00000E+00  0.00000E+00  0.00000E+00    0.29749E+02  0.15503E+02 -0.45252E+02 -0.12038E+01 -0.48486E+01 -0.77590E+01      982.00
  0.88069E+00  0.70831E+02    0.46250E+00  0.46250E+00 -0.92500E+00  0.00000E+00  0.00000E+00  0.00000E+00    0.29746E+02  0.15536E+02 -0.45282E+02 -0.12107E+01 -0.47871E+01 -0.77200E+01      982.00
  0.90466E+00  0.70843E+02    0.47500E+00  0.47500E+00 -0.95000E+00  0.00000E+00  0.00000E+00  0.00000E+00    0.29742E+02  0.15568E+02 -0.45311E+02 -0.12171E+01 -0.47281E+01 -0.76829E+01      982.00
  0.92865E+00  0.70853E+02    0.48750E+00  0.48750E+00 -0.97500E+00  0.00000E+00  0.00000E+00  0.00000E+00    0.29739E+02  0.15598E+02 -0.45337E+02 -0.12230E+01 -0.46715E+01 -0.76475E+01      982.00
  0.95264E+00  0.70863E+02    0.50000E+00  0.50000E+00 -0.10000E+01  0.00000E+00  0.00000E+00  0.00000E+00    0.29736E+02  0.15627E+02 -0.45362E+02 -0.12284E+01 -0.46172E+01 -0.76137E+01      982.00
