          Evm          Svm            E11          E22          E33          E23          E13          E12         SDEV11       SDEV22       SDEV33       SDEV23       SDEV13       SDEV12      TEMP
  0.00000E+00  0.57428E+02    0.00000E+00  0.00000E+00  0.00000E+00  0.00000E+00  0.00000E+00  0.00000E+00    0.16066E+02  0.19058E+02 -0.35125E+02 -0.38519E+01  0.11008E+01  0.12480E+02      982.00
  0.22936E-01  0.57451E+02    0.12500E-01  0.12500E-01 -0.25000E-01  0.00000E+00  0.00000E+00  0.00000E+00    0.16467E+02  0.18620E+02 -0.35088E+02 -0.35679E+01  0.13555E+01  0.12693E+02      982.00
  0.45839E-01  0.57568E+02    0.25000E-01  0.25000E-01 -0.50000E-01  0.00000E+00  0.00000E+00  0.00000E+00    0.16779E+02  0.18309E+02 -0.35088E+02 -0.33586E+01  0.15360E+01  0.12926E+02      982.00
  0.68695E-01  0.57770E+02    0.37500E-01  0.37500E-01 -0.75000E-01  0.00000E+00  0.00000E+00  0.00000E+00    0.17038E+02  0.18087E+02 -0.35125E+02 -0.31810E+01  0.16742E+01  0.13190E+02      982.00
  0.91496E-01  0.58045E+02    0.50000E-01  0.50000E-01 -0.10000E+00  0.00000E+00  0.00000E+00  0.00000E+00    0.17250E+02  0.17943E+02 -0.35194E+02 -0.30286E+01  0.17741E+01  0.13480E+02      982.00
  0.11423E+00  0.58375E+02    0.62500E-01  0.62500E-01 -0.12500E+00  0.00000E+00  0.00000E+00  0.00000E+00    0.17425E+02  0.17863E+02 -0.35288E+02 -0.28946E+01  0.18419E+01  0.13788E+02      982.00
  0.13690E+00  0.58743E+02    0.75000E-01  0.75000E-01 -0.15000E+00  0.00000E+00  0.00000E+00  0.00000E+00    0.17570E+02  0.17833E+02 -0.35403E+02 -0.27754E+01  0.18828E+01  0.14104E+02      982.00
  0.15950E+00  0.59136E+02    0.87500E-01  0.87500E-01 -0.17500E+00  0.00000E+00  0.00000E+00  0.00000E+00    0.17693E+02  0.17842E+02 -0.35535E+02 -0.26682E+01  0.19017E+01  0.14420E+02      982.00
  0.18204E+00  0.59544E+02    0.10000E+00  0.10000E+00 -0.20000E+00  0.00000E+00  0.00000E+00  0.00000E+00    0.17799E+02  0.17879E+02 -0.35677E+02 -0.25709E+01  0.19031E+01  0.14729E+02      982.00
  0.20450E+00  0.59938E+02    0.11250E+00  0.11250E+00 -0.22500E+00  0.00000E+00  0.00000E+00  0.00000E+00    0.17887E+02  0.17932E+02 -0.35819E+02 -0.24857E+01  0.18913E+01  0.15017E+02      982.00
  0.22692E+00  0.60348E+02    0.12500E+00  0.12500E+00 -0.25000E+00  0.00000E+00  0.00000E+00  0.00000E+00    0.17971E+02  0.18000E+02 -0.35971E+02 -0.24127E+01  0.18680E+01  0.15304E+02      982.00
  0.24927E+00  0.60738E+02    0.13750E+00  0.13750E+00 -0.27500E+00  0.00000E+00  0.00000E+00  0.00000E+00    0.18048E+02  0.18072E+02 -0.36120E+02 -0.23405E+01  0.18408E+01  0.15568E+02      982.00
  0.27157E+00  0.61124E+02    0.15000E+00  0.15000E+00 -0.30000E+00  0.00000E+00  0.00000E+00  0.00000E+00    0.18124E+02  0.18145E+02 -0.36268E+02 -0.22733E+01  0.18079E+01  0.15824E+02      982.00
  0.29382E+00  0.61487E+02    0.16250E+00  0.16250E+00 -0.32500E+00  0.00000E+00  0.00000E+00  0.00000E+00    0.18197E+02  0.18215E+02 -0.36413E+02 -0.22277E+01  0.17790E+01  0.16051E+02      982.00
  0.31603E+00  0.61844E+02    0.17500E+00  0.17500E+00 -0.35000E+00  0.00000E+00  0.00000E+00  0.00000E+00    0.18272E+02  0.18282E+02 -0.36554E+02 -0.21744E+01  0.17426E+01  0.16278E+02      982.00
  0.33819E+00  0.62161E+02    0.18750E+00  0.18750E+00 -0.37500E+00  0.00000E+00  0.00000E+00  0.00000E+00    0.18344E+02  0.18342E+02 -0.36687E+02 -0.21437E+01  0.17178E+01  0.16463E+02      982.00
  0.36032E+00  0.62429E+02    0.20000E+00  0.20000E+00 -0.40000E+00  0.00000E+00  0.00000E+00  0.00000E+00    0.18412E+02  0.18394E+02 -0.36806E+02 -0.21404E+01  0.17093E+01  0.16602E+02      982.00
  0.38243E+00  0.62705E+02    0.21250E+00  0.21250E+00 -0.42500E+00  0.00000E+00  0.00000E+00  0.00000E+00    0.18483E+02  0.18442E+02 -0.36925E+02 -0.21176E+01  0.16889E+01  0.16755E+02      982.00
  0.40451E+00  0.62975E+02    0.22500E+00  0.22500E+00 -0.45000E+00  0.00000E+00  0.00000E+00  0.00000E+00    0.18555E+02  0.18478E+02 -0.37033E+02 -0.20756E+01  0.16529E+01  0.16920E+02      982.00
  0.42657E+00  0.63204E+02    0.23750E+00  0.23750E+00 -0.47500E+00  0.00000E+00  0.00000E+00  0.00000E+00    0.18624E+02  0.18512E+02 -0.37135E+02 -0.20627E+01  0.16383E+01  0.17041E+02      982.00
  0.44860E+00  0.63415E+02    0.25000E+00  0.25000E+00 -0.50000E+00  0.00000E+00  0.00000E+00  0.00000E+00    0.18691E+02  0.18540E+02 -0.37231E+02 -0.20544E+01  0.16266E+01  0.17146E+02      982.00
  0.47062E+00  0.63608E+02    0.26250E+00  0.26250E+00 -0.52500E+00  0.00000E+00  0.00000E+00  0.00000E+00    0.18757E+02  0.18563E+02 -0.37320E+02 -0.20484E+01  0.16167E+01  0.17241E+02      982.00
  0.49262E+00  0.63785E+02    0.27500E+00  0.27500E+00 -0.55000E+00  0.00000E+00  0.00000E+00  0.00000E+00    0.18821E+02  0.18581E+02 -0.37402E+02 -0.20443E+01  0.16085E+01  0.17326E+02      982.00
  0.51461E+00  0.63948E+02    0.28750E+00  0.28750E+00 -0.57500E+00  0.00000E+00  0.00000E+00  0.00000E+00    0.18884E+02  0.18595E+02 -0.37479E+02 -0.20416E+01  0.16016E+01  0.17403E+02      982.00
  0.53659E+00  0.64098E+02    0.30000E+00  0.30000E+00 -0.60000E+00  0.00000E+00  0.00000E+00  0.00000E+00    0.18944E+02  0.18606E+02 -0.37550E+02 -0.20402E+01  0.15960E+01  0.17472E+02      982.00
  0.55855E+00  0.64236E+02    0.31250E+00  0.31250E+00 -0.62500E+00  0.00000E+00  0.00000E+00  0.00000E+00    0.19009E+02  0.18603E+02 -0.37611E+02 -0.20366E+01  0.15875E+01  0.17542E+02      982.00
  0.58051E+00  0.64363E+02    0.32500E+00  0.32500E+00 -0.65000E+00  0.00000E+00  0.00000E+00  0.00000E+00    0.19068E+02  0.18607E+02 -0.37674E+02 -0.20375E+01  0.15840E+01  0.17597E+02      982.00
  0.60246E+00  0.64477E+02    0.33750E+00  0.33750E+00 -0.67500E+00  0.00000E+00  0.00000E+00  0.00000E+00    0.19122E+02  0.18608E+02 -0.37730E+02 -0.20390E+01  0.15815E+01  0.17646E+02      982.00
  0.62441E+00  0.64583E+02    0.35000E+00  0.35000E+00 -0.70000E+00  0.00000E+00  0.00000E+00  0.00000E+00    0.19175E+02  0.18607E+02 -0.37782E+02 -0.20411E+01  0.15797E+01  0.17691E+02      982.00
  0.64634E+00  0.64681E+02    0.36250E+00  0.36250E+00 -0.72500E+00  0.00000E+00  0.00000E+00  0.00000E+00    0.19226E+02  0.18604E+02 -0.37831E+02 -0.20436E+01  0.15785E+01  0.17732E+02      982.00
  0.66828E+00  0.64772E+02    0.37500E+00  0.37500E+00 -0.75000E+00  0.00000E+00  0.00000E+00  0.00000E+00    0.19276E+02  0.18600E+02 -0.37876E+02 -0.20464E+01  0.15777E+01  0.17770E+02      982.00
  0.69020E+00  0.64856E+02    0.38750E+00  0.38750E+00 -0.77500E+00  0.00000E+00  0.00000E+00  0.00000E+00    0.19324E+02  0.18594E+02 -0.37918E+02 -0.20494E+01  0.15774E+01  0.17804E+02      982.00
  0.71213E+00  0.64935E+02    0.40000E+00  0.40000E+00 -0.80000E+00  0.00000E+00  0.00000E+00  0.00000E+00    0.19370E+02  0.18587E+02 -0.37957E+02 -0.20527E+01  0.15774E+01  0.17835E+02      982.00
  0.73405E+00  0.65007E+02    0.41250E+00  0.41250E+00 -0.82500E+00  0.00000E+00  0.00000E+00  0.00000E+00    0.19415E+02  0.18579E+02 -0.37994E+02 -0.20561E+01  0.15777E+01  0.17864E+02      982.00
  0.75597E+00  0.65075E+02    0.42500E+00  0.42500E+00 -0.85000E+00  0.00000E+00  0.00000E+00  0.00000E+00    0.19458E+02  0.18570E+02 -0.38028E+02 -0.20596E+01  0.15782E+01  0.17891E+02      982.00
  0.77788E+00  0.65138E+02    0.43750E+00  0.43750E+00 -0.87500E+00  0.00000E+00  0.00000E+00  0.00000E+00    0.19500E+02  0.18559E+02 -0.38059E+02 -0.20632E+01  0.15789E+01  0.17915E+02      982.00
  0.79979E+00  0.65197E+02    0.45000E+00  0.45000E+00 -0.90000E+00  0.00000E+00  0.00000E+00  0.00000E+00    0.19541E+02  0.18548E+02 -0.38089E+02 -0.20669E+01  0.15799E+01  0.17938E+02      982.00
  0.82170E+00  0.65252E+02    0.46250E+00  0.46250E+00 -0.92500E+00  0.00000E+00  0.00000E+00  0.00000E+00    0.19581E+02  0.18536E+02 -0.38117E+02 -0.20707E+01  0.15810E+01  0.17959E+02      982.00
  0.84360E+00  0.65303E+02    0.47500E+00  0.47500E+00 -0.95000E+00  0.00000E+00  0.00000E+00  0.00000E+00    0.19619E+02  0.18524E+02 -0.38143E+02 -0.20744E+01  0.15821E+01  0.17979E+02      982.00
  0.86551E+00  0.65351E+02    0.48750E+00  0.48750E+00 -0.97500E+00  0.00000E+00  0.00000E+00  0.00000E+00    0.19657E+02  0.18510E+02 -0.38167E+02 -0.20782E+01  0.15834E+01  0.17997E+02      982.00
  0.88741E+00  0.65359E+02    0.50000E+00  0.50000E+00 -0.10000E+01  0.00000E+00  0.00000E+00  0.00000E+00    0.19646E+02  0.18526E+02 -0.38172E+02 -0.20762E+01  0.15867E+01  0.17999E+02      982.00
