          Evm          Svm            E11          E22          E33          E23          E13          E12         SDEV11       SDEV22       SDEV33       SDEV23       SDEV13       SDEV12      TEMP
  0.00000E+00  0.48695E+02    0.00000E+00  0.00000E+00  0.00000E+00  0.00000E+00  0.00000E+00  0.00000E+00    0.11359E+02  0.19350E+02 -0.30709E+02 -0.43405E+01 -0.49711E+01 -0.48580E+01      982.00
  0.23649E-01  0.49412E+02    0.12500E-01  0.12500E-01 -0.25000E-01  0.00000E+00  0.00000E+00  0.00000E+00    0.11330E+02  0.19560E+02 -0.30890E+02 -0.49605E+01 -0.50761E+01 -0.55577E+01      982.00
  0.47092E-01  0.50068E+02    0.25000E-01  0.25000E-01 -0.50000E-01  0.00000E+00  0.00000E+00  0.00000E+00    0.11369E+02  0.19738E+02 -0.31107E+02 -0.53335E+01 -0.51743E+01 -0.60927E+01      982.00
  0.70391E-01  0.50682E+02    0.37500E-01  0.37500E-01 -0.75000E-01  0.00000E+00  0.00000E+00  0.00000E+00    0.11445E+02  0.19900E+02 -0.31346E+02 -0.55754E+01 -0.52615E+01 -0.65313E+01      982.00
  0.93584E-01  0.51264E+02    0.50000E-01  0.50000E-01 -0.10000E+00  0.00000E+00  0.00000E+00  0.00000E+00    0.11543E+02  0.20056E+02 -0.31599E+02 -0.57360E+01 -0.53323E+01 -0.69038E+01      982.00
  0.11670E+00  0.51827E+02    0.62500E-01  0.62500E-01 -0.12500E+00  0.00000E+00  0.00000E+00  0.00000E+00    0.11657E+02  0.20208E+02 -0.31865E+02 -0.58476E+01 -0.53873E+01 -0.72332E+01      982.00
  0.13976E+00  0.52368E+02    0.75000E-01  0.75000E-01 -0.15000E+00  0.00000E+00  0.00000E+00  0.00000E+00    0.11781E+02  0.20360E+02 -0.32141E+02 -0.59167E+01 -0.54227E+01 -0.75193E+01      982.00
  0.16277E+00  0.52899E+02    0.87500E-01  0.87500E-01 -0.17500E+00  0.00000E+00  0.00000E+00  0.00000E+00    0.11907E+02  0.20518E+02 -0.32425E+02 -0.59661E+01 -0.54427E+01 -0.77768E+01      982.00
  0.18576E+00  0.53418E+02    0.10000E+00  0.10000E+00 -0.20000E+00  0.00000E+00  0.00000E+00  0.00000E+00    0.12035E+02  0.20679E+02 -0.32714E+02 -0.59909E+01 -0.54489E+01 -0.80150E+01      982.00
  0.20872E+00  0.53926E+02    0.11250E+00  0.11250E+00 -0.22500E+00  0.00000E+00  0.00000E+00  0.00000E+00    0.12174E+02  0.20837E+02 -0.33011E+02 -0.59902E+01 -0.54431E+01 -0.82306E+01      982.00
  0.23168E+00  0.54450E+02    0.12500E+00  0.12500E+00 -0.25000E+00  0.00000E+00  0.00000E+00  0.00000E+00    0.12314E+02  0.21005E+02 -0.33319E+02 -0.59893E+01 -0.54339E+01 -0.84482E+01      982.00
  0.25463E+00  0.54962E+02    0.13750E+00  0.13750E+00 -0.27500E+00  0.00000E+00  0.00000E+00  0.00000E+00    0.12470E+02  0.21162E+02 -0.33633E+02 -0.59708E+01 -0.54172E+01 -0.86421E+01      982.00
  0.27757E+00  0.55477E+02    0.15000E+00  0.15000E+00 -0.30000E+00  0.00000E+00  0.00000E+00  0.00000E+00    0.12639E+02  0.21315E+02 -0.33954E+02 -0.59464E+01 -0.53988E+01 -0.88272E+01      982.00
  0.30052E+00  0.56023E+02    0.16250E+00  0.16250E+00 -0.32500E+00  0.00000E+00  0.00000E+00  0.00000E+00    0.12821E+02  0.21471E+02 -0.34292E+02 -0.59273E+01 -0.53832E+01 -0.90232E+01      982.00
  0.32348E+00  0.56543E+02    0.17500E+00  0.17500E+00 -0.35000E+00  0.00000E+00  0.00000E+00  0.00000E+00    0.13017E+02  0.21607E+02 -0.34625E+02 -0.59013E+01 -0.53630E+01 -0.91931E+01      982.00
  0.34644E+00  0.57064E+02    0.18750E+00  0.18750E+00 -0.37500E+00  0.00000E+00  0.00000E+00  0.00000E+00    0.13229E+02  0.21733E+02 -0.34962E+02 -0.58766E+01 -0.53433E+01 -0.93552E+01      982.00
  0.36942E+00  0.57583E+02    0.20000E+00  0.20000E+00 -0.40000E+00  0.00000E+00  0.00000E+00  0.00000E+00    0.13456E+02  0.21845E+02 -0.35301E+02 -0.58544E+01 -0.53239E+01 -0.95092E+01      982.00
  0.39241E+00  0.58098E+02    0.21250E+00  0.21250E+00 -0.42500E+00  0.00000E+00  0.00000E+00  0.00000E+00    0.13699E+02  0.21943E+02 -0.35642E+02 -0.58353E+01 -0.53042E+01 -0.96544E+01      982.00
  0.41541E+00  0.58583E+02    0.22500E+00  0.22500E+00 -0.45000E+00  0.00000E+00  0.00000E+00  0.00000E+00    0.13938E+02  0.22030E+02 -0.35967E+02 -0.58186E+01 -0.52793E+01 -0.97806E+01      982.00
  0.43844E+00  0.59086E+02    0.23750E+00  0.23750E+00 -0.47500E+00  0.00000E+00  0.00000E+00  0.00000E+00    0.14203E+02  0.22102E+02 -0.36305E+02 -0.58077E+01 -0.52577E+01 -0.99081E+01      982.00
  0.46148E+00  0.59569E+02    0.25000E+00  0.25000E+00 -0.50000E+00  0.00000E+00  0.00000E+00  0.00000E+00    0.14469E+02  0.22167E+02 -0.36635E+02 -0.57978E+01 -0.52307E+01 -0.10022E+02      982.00
  0.48454E+00  0.60050E+02    0.26250E+00  0.26250E+00 -0.52500E+00  0.00000E+00  0.00000E+00  0.00000E+00    0.14756E+02  0.22210E+02 -0.36966E+02 -0.57939E+01 -0.52059E+01 -0.10129E+02      982.00
  0.50762E+00  0.60517E+02    0.27500E+00  0.27500E+00 -0.55000E+00  0.00000E+00  0.00000E+00  0.00000E+00    0.15053E+02  0.22238E+02 -0.37291E+02 -0.57929E+01 -0.51793E+01 -0.10224E+02      982.00
  0.53073E+00  0.60969E+02    0.28750E+00  0.28750E+00 -0.57500E+00  0.00000E+00  0.00000E+00  0.00000E+00    0.15358E+02  0.22251E+02 -0.37610E+02 -0.57945E+01 -0.51504E+01 -0.10307E+02      982.00
  0.55386E+00  0.61405E+02    0.30000E+00  0.30000E+00 -0.60000E+00  0.00000E+00  0.00000E+00  0.00000E+00    0.15670E+02  0.22251E+02 -0.37921E+02 -0.57983E+01 -0.51189E+01 -0.10379E+02      982.00
  0.57702E+00  0.61824E+02    0.31250E+00  0.31250E+00 -0.62500E+00  0.00000E+00  0.00000E+00  0.00000E+00    0.15986E+02  0.22238E+02 -0.38224E+02 -0.58040E+01 -0.50847E+01 -0.10439E+02      982.00
  0.60021E+00  0.62226E+02    0.32500E+00  0.32500E+00 -0.65000E+00  0.00000E+00  0.00000E+00  0.00000E+00    0.16305E+02  0.22213E+02 -0.38518E+02 -0.58111E+01 -0.50477E+01 -0.10488E+02      982.00
  0.62342E+00  0.62608E+02    0.33750E+00  0.33750E+00 -0.67500E+00  0.00000E+00  0.00000E+00  0.00000E+00    0.16644E+02  0.22161E+02 -0.38805E+02 -0.58191E+01 -0.50077E+01 -0.10519E+02      982.00
  0.64666E+00  0.62973E+02    0.35000E+00  0.35000E+00 -0.70000E+00  0.00000E+00  0.00000E+00  0.00000E+00    0.16965E+02  0.22114E+02 -0.39080E+02 -0.58282E+01 -0.49652E+01 -0.10545E+02      982.00
  0.66993E+00  0.63320E+02    0.36250E+00  0.36250E+00 -0.72500E+00  0.00000E+00  0.00000E+00  0.00000E+00    0.17285E+02  0.22059E+02 -0.39344E+02 -0.58379E+01 -0.49199E+01 -0.10561E+02      982.00
  0.69324E+00  0.63649E+02    0.37500E+00  0.37500E+00 -0.75000E+00  0.00000E+00  0.00000E+00  0.00000E+00    0.17603E+02  0.21996E+02 -0.39598E+02 -0.58477E+01 -0.48723E+01 -0.10566E+02      982.00
  0.71657E+00  0.63948E+02    0.38750E+00  0.38750E+00 -0.77500E+00  0.00000E+00  0.00000E+00  0.00000E+00    0.17897E+02  0.21933E+02 -0.39829E+02 -0.58581E+01 -0.48259E+01 -0.10567E+02      982.00
  0.73992E+00  0.64244E+02    0.40000E+00  0.40000E+00 -0.80000E+00  0.00000E+00  0.00000E+00  0.00000E+00    0.18237E+02  0.21831E+02 -0.40069E+02 -0.58730E+01 -0.47711E+01 -0.10543E+02      982.00
  0.76331E+00  0.64523E+02    0.41250E+00  0.41250E+00 -0.82500E+00  0.00000E+00  0.00000E+00  0.00000E+00    0.18543E+02  0.21749E+02 -0.40292E+02 -0.58827E+01 -0.47172E+01 -0.10522E+02      982.00
  0.78673E+00  0.64785E+02    0.42500E+00  0.42500E+00 -0.85000E+00  0.00000E+00  0.00000E+00  0.00000E+00    0.18843E+02  0.21662E+02 -0.40505E+02 -0.58917E+01 -0.46622E+01 -0.10493E+02      982.00
  0.81017E+00  0.65032E+02    0.43750E+00  0.43750E+00 -0.87500E+00  0.00000E+00  0.00000E+00  0.00000E+00    0.19138E+02  0.21570E+02 -0.40708E+02 -0.59001E+01 -0.46062E+01 -0.10458E+02      982.00
  0.83365E+00  0.65264E+02    0.45000E+00  0.45000E+00 -0.90000E+00  0.00000E+00  0.00000E+00  0.00000E+00    0.19426E+02  0.21475E+02 -0.40901E+02 -0.59082E+01 -0.45494E+01 -0.10415E+02      982.00
  0.85715E+00  0.65488E+02    0.46250E+00  0.46250E+00 -0.92500E+00  0.00000E+00  0.00000E+00  0.00000E+00    0.19686E+02  0.21397E+02 -0.41083E+02 -0.59105E+01 -0.44998E+01 -0.10382E+02      982.00
  0.88067E+00  0.65701E+02    0.47500E+00  0.47500E+00 -0.95000E+00  0.00000E+00  0.00000E+00  0.00000E+00    0.19962E+02  0.21300E+02 -0.41262E+02 -0.59121E+01 -0.44471E+01 -0.10332E+02      982.00
  0.90422E+00  0.65898E+02    0.48750E+00  0.48750E+00 -0.97500E+00  0.00000E+00  0.00000E+00  0.00000E+00    0.20243E+02  0.21190E+02 -0.41433E+02 -0.59155E+01 -0.43931E+01 -0.10270E+02      982.00
  0.92780E+00  0.66005E+02    0.50000E+00  0.50000E+00 -0.10000E+01  0.00000E+00  0.00000E+00  0.00000E+00    0.20472E+02  0.21082E+02 -0.41554E+02 -0.58869E+01 -0.43158E+01 -0.10189E+02      982.00
