          Evm          Svm            E11          E22          E33          E23          E13          E12         SDEV11       SDEV22       SDEV33       SDEV23       SDEV13       SDEV12      TEMP
  0.00000E+00  0.65467E+02    0.00000E+00  0.00000E+00  0.00000E+00  0.00000E+00  0.00000E+00  0.00000E+00    0.19972E+02  0.22698E+02 -0.42671E+02  0.46646E+00  0.51681E+01 -0.58559E+01      982.00
  0.24442E-01  0.65436E+02    0.12500E-01  0.12500E-01 -0.25000E-01  0.00000E+00  0.00000E+00  0.00000E+00    0.19534E+02  0.23149E+02 -0.42683E+02  0.51393E+00  0.49205E+01 -0.57609E+01      982.00
  0.48902E-01  0.65395E+02    0.25000E-01  0.25000E-01 -0.50000E-01  0.00000E+00  0.00000E+00  0.00000E+00    0.19196E+02  0.23501E+02 -0.42697E+02  0.53887E+00  0.46992E+01 -0.55863E+01      982.00
  0.73387E-01  0.65281E+02    0.37500E-01  0.37500E-01 -0.75000E-01  0.00000E+00  0.00000E+00  0.00000E+00    0.18929E+02  0.23747E+02 -0.42677E+02  0.58292E+00  0.44588E+01 -0.53416E+01      982.00
  0.97902E-01  0.65172E+02    0.50000E-01  0.50000E-01 -0.10000E+00  0.00000E+00  0.00000E+00  0.00000E+00    0.18712E+02  0.23948E+02 -0.42660E+02  0.72860E+00  0.42130E+01 -0.50746E+01      982.00
  0.12245E+00  0.65140E+02    0.62500E-01  0.62500E-01 -0.12500E+00  0.00000E+00  0.00000E+00  0.00000E+00    0.18530E+02  0.24151E+02 -0.42681E+02  0.97186E+00  0.39950E+01 -0.48315E+01      982.00
  0.14702E+00  0.65181E+02    0.75000E-01  0.75000E-01 -0.15000E+00  0.00000E+00  0.00000E+00  0.00000E+00    0.18377E+02  0.24357E+02 -0.42733E+02  0.12559E+01  0.38192E+01 -0.46352E+01      982.00
  0.17160E+00  0.65278E+02    0.87500E-01  0.87500E-01 -0.17500E+00  0.00000E+00  0.00000E+00  0.00000E+00    0.18241E+02  0.24565E+02 -0.42806E+02  0.15344E+01  0.36831E+01 -0.44941E+01      982.00
  0.19620E+00  0.65421E+02    0.10000E+00  0.10000E+00 -0.20000E+00  0.00000E+00  0.00000E+00  0.00000E+00    0.18113E+02  0.24785E+02 -0.42897E+02  0.17835E+01  0.35763E+01 -0.44074E+01      982.00
  0.22078E+00  0.65600E+02    0.11250E+00  0.11250E+00 -0.22500E+00  0.00000E+00  0.00000E+00  0.00000E+00    0.17980E+02  0.25021E+02 -0.43001E+02  0.19947E+01  0.34885E+01 -0.43697E+01      982.00
  0.24537E+00  0.65804E+02    0.12500E+00  0.12500E+00 -0.25000E+00  0.00000E+00  0.00000E+00  0.00000E+00    0.17850E+02  0.25265E+02 -0.43115E+02  0.21649E+01  0.34192E+01 -0.43738E+01      982.00
  0.26994E+00  0.66027E+02    0.13750E+00  0.13750E+00 -0.27500E+00  0.00000E+00  0.00000E+00  0.00000E+00    0.17717E+02  0.25518E+02 -0.43235E+02  0.22989E+01  0.33609E+01 -0.44106E+01      982.00
  0.29449E+00  0.66262E+02    0.15000E+00  0.15000E+00 -0.30000E+00  0.00000E+00  0.00000E+00  0.00000E+00    0.17575E+02  0.25784E+02 -0.43359E+02  0.24031E+01  0.33055E+01 -0.44704E+01      982.00
  0.31903E+00  0.66499E+02    0.16250E+00  0.16250E+00 -0.32500E+00  0.00000E+00  0.00000E+00  0.00000E+00    0.17438E+02  0.26045E+02 -0.43482E+02  0.24806E+01  0.32612E+01 -0.45486E+01      982.00
  0.34355E+00  0.66738E+02    0.17500E+00  0.17500E+00 -0.35000E+00  0.00000E+00  0.00000E+00  0.00000E+00    0.17303E+02  0.26302E+02 -0.43605E+02  0.25376E+01  0.32238E+01 -0.46388E+01      982.00
  0.36805E+00  0.66972E+02    0.18750E+00  0.18750E+00 -0.37500E+00  0.00000E+00  0.00000E+00  0.00000E+00    0.17160E+02  0.26564E+02 -0.43723E+02  0.25794E+01  0.31810E+01 -0.47315E+01      982.00
  0.39253E+00  0.67194E+02    0.20000E+00  0.20000E+00 -0.40000E+00  0.00000E+00  0.00000E+00  0.00000E+00    0.17025E+02  0.26809E+02 -0.43834E+02  0.26078E+01  0.31477E+01 -0.48286E+01      982.00
  0.41700E+00  0.67406E+02    0.21250E+00  0.21250E+00 -0.42500E+00  0.00000E+00  0.00000E+00  0.00000E+00    0.16893E+02  0.27045E+02 -0.43938E+02  0.26266E+01  0.31168E+01 -0.49252E+01      982.00
  0.44144E+00  0.67606E+02    0.22500E+00  0.22500E+00 -0.45000E+00  0.00000E+00  0.00000E+00  0.00000E+00    0.16764E+02  0.27270E+02 -0.44034E+02  0.26383E+01  0.30877E+01 -0.50196E+01      982.00
  0.46587E+00  0.67792E+02    0.23750E+00  0.23750E+00 -0.47500E+00  0.00000E+00  0.00000E+00  0.00000E+00    0.16631E+02  0.27490E+02 -0.44121E+02  0.26464E+01  0.30526E+01 -0.51081E+01      982.00
  0.49027E+00  0.67967E+02    0.25000E+00  0.25000E+00 -0.50000E+00  0.00000E+00  0.00000E+00  0.00000E+00    0.16510E+02  0.27692E+02 -0.44202E+02  0.26493E+01  0.30272E+01 -0.51949E+01      982.00
  0.51466E+00  0.68128E+02    0.26250E+00  0.26250E+00 -0.52500E+00  0.00000E+00  0.00000E+00  0.00000E+00    0.16392E+02  0.27883E+02 -0.44276E+02  0.26495E+01  0.30032E+01 -0.52770E+01      982.00
  0.53903E+00  0.68277E+02    0.27500E+00  0.27500E+00 -0.55000E+00  0.00000E+00  0.00000E+00  0.00000E+00    0.16278E+02  0.28064E+02 -0.44341E+02  0.26486E+01  0.29799E+01 -0.53545E+01      982.00
  0.56339E+00  0.68417E+02    0.28750E+00  0.28750E+00 -0.57500E+00  0.00000E+00  0.00000E+00  0.00000E+00    0.16161E+02  0.28241E+02 -0.44402E+02  0.26480E+01  0.29507E+01 -0.54255E+01      982.00
  0.58772E+00  0.68544E+02    0.30000E+00  0.30000E+00 -0.60000E+00  0.00000E+00  0.00000E+00  0.00000E+00    0.16056E+02  0.28400E+02 -0.44456E+02  0.26449E+01  0.29305E+01 -0.54930E+01      982.00
  0.61204E+00  0.68661E+02    0.31250E+00  0.31250E+00 -0.62500E+00  0.00000E+00  0.00000E+00  0.00000E+00    0.15955E+02  0.28549E+02 -0.44504E+02  0.26417E+01  0.29115E+01 -0.55560E+01      982.00
  0.63635E+00  0.68768E+02    0.32500E+00  0.32500E+00 -0.65000E+00  0.00000E+00  0.00000E+00  0.00000E+00    0.15859E+02  0.28689E+02 -0.44547E+02  0.26387E+01  0.28934E+01 -0.56144E+01      982.00
  0.66064E+00  0.68866E+02    0.33750E+00  0.33750E+00 -0.67500E+00  0.00000E+00  0.00000E+00  0.00000E+00    0.15766E+02  0.28820E+02 -0.44585E+02  0.26361E+01  0.28765E+01 -0.56688E+01      982.00
  0.68492E+00  0.68958E+02    0.35000E+00  0.35000E+00 -0.70000E+00  0.00000E+00  0.00000E+00  0.00000E+00    0.15669E+02  0.28950E+02 -0.44620E+02  0.26357E+01  0.28530E+01 -0.57180E+01      982.00
  0.70919E+00  0.69034E+02    0.36250E+00  0.36250E+00 -0.72500E+00  0.00000E+00  0.00000E+00  0.00000E+00    0.15587E+02  0.29059E+02 -0.44646E+02  0.26357E+01  0.28394E+01 -0.57639E+01      982.00
  0.73344E+00  0.69109E+02    0.37500E+00  0.37500E+00 -0.75000E+00  0.00000E+00  0.00000E+00  0.00000E+00    0.15505E+02  0.29168E+02 -0.44672E+02  0.26353E+01  0.28262E+01 -0.58075E+01      982.00
  0.75768E+00  0.69178E+02    0.38750E+00  0.38750E+00 -0.77500E+00  0.00000E+00  0.00000E+00  0.00000E+00    0.15425E+02  0.29270E+02 -0.44695E+02  0.26358E+01  0.28137E+01 -0.58478E+01      982.00
  0.78191E+00  0.69239E+02    0.40000E+00  0.40000E+00 -0.80000E+00  0.00000E+00  0.00000E+00  0.00000E+00    0.15352E+02  0.29364E+02 -0.44716E+02  0.26394E+01  0.27899E+01 -0.58756E+01      982.00
  0.80612E+00  0.69297E+02    0.41250E+00  0.41250E+00 -0.82500E+00  0.00000E+00  0.00000E+00  0.00000E+00    0.15279E+02  0.29454E+02 -0.44734E+02  0.26418E+01  0.27793E+01 -0.59099E+01      982.00
  0.83033E+00  0.69350E+02    0.42500E+00  0.42500E+00 -0.85000E+00  0.00000E+00  0.00000E+00  0.00000E+00    0.15210E+02  0.29539E+02 -0.44749E+02  0.26450E+01  0.27700E+01 -0.59415E+01      982.00
  0.85453E+00  0.69398E+02    0.43750E+00  0.43750E+00 -0.87500E+00  0.00000E+00  0.00000E+00  0.00000E+00    0.15144E+02  0.29617E+02 -0.44761E+02  0.26492E+01  0.27614E+01 -0.59704E+01      982.00
  0.87872E+00  0.69441E+02    0.45000E+00  0.45000E+00 -0.90000E+00  0.00000E+00  0.00000E+00  0.00000E+00    0.15080E+02  0.29692E+02 -0.44772E+02  0.26544E+01  0.27537E+01 -0.59968E+01      982.00
  0.90289E+00  0.69480E+02    0.46250E+00  0.46250E+00 -0.92500E+00  0.00000E+00  0.00000E+00  0.00000E+00    0.15020E+02  0.29761E+02 -0.44781E+02  0.26606E+01  0.27466E+01 -0.60208E+01      982.00
  0.92706E+00  0.69462E+02    0.47500E+00  0.47500E+00 -0.95000E+00  0.00000E+00  0.00000E+00  0.00000E+00    0.14960E+02  0.29796E+02 -0.44757E+02  0.26610E+01  0.27335E+01 -0.60325E+01      982.00
  0.95123E+00  0.69444E+02    0.48750E+00  0.48750E+00 -0.97500E+00  0.00000E+00  0.00000E+00  0.00000E+00    0.14906E+02  0.29828E+02 -0.44734E+02  0.26636E+01  0.27198E+01 -0.60425E+01      982.00
  0.97538E+00  0.69426E+02    0.50000E+00  0.50000E+00 -0.10000E+01  0.00000E+00  0.00000E+00  0.00000E+00    0.14854E+02  0.29857E+02 -0.44711E+02  0.26670E+01  0.27066E+01 -0.60512E+01      982.00
