          Evm          Svm            E11          E22          E33          E23          E13          E12         SDEV11       SDEV22       SDEV33       SDEV23       SDEV13       SDEV12      TEMP
  0.00000E+00  0.62155E+02    0.00000E+00  0.00000E+00  0.00000E+00  0.00000E+00  0.00000E+00  0.00000E+00    0.22550E+02  0.15809E+02 -0.38359E+02  0.58758E+01 -0.44714E+01  0.10875E+02      982.00
  0.23143E-01  0.62160E+02    0.12500E-01  0.12500E-01 -0.25000E-01  0.00000E+00  0.00000E+00  0.00000E+00    0.22786E+02  0.15655E+02 -0.38441E+02  0.55945E+01 -0.45352E+01  0.10728E+02      982.00
  0.46334E-01  0.62205E+02    0.25000E-01  0.25000E-01 -0.50000E-01  0.00000E+00  0.00000E+00  0.00000E+00    0.22986E+02  0.15546E+02 -0.38532E+02  0.53230E+01 -0.45973E+01  0.10629E+02      982.00
  0.69563E-01  0.62296E+02    0.37500E-01  0.37500E-01 -0.75000E-01  0.00000E+00  0.00000E+00  0.00000E+00    0.23210E+02  0.15425E+02 -0.38635E+02  0.50731E+01 -0.46488E+01  0.10563E+02      982.00
  0.92820E-01  0.62420E+02    0.50000E-01  0.50000E-01 -0.10000E+00  0.00000E+00  0.00000E+00  0.00000E+00    0.23432E+02  0.15314E+02 -0.38746E+02  0.48510E+01 -0.46829E+01  0.10531E+02      982.00
  0.11610E+00  0.62578E+02    0.62500E-01  0.62500E-01 -0.12500E+00  0.00000E+00  0.00000E+00  0.00000E+00    0.23652E+02  0.15214E+02 -0.38865E+02  0.46578E+01 -0.47028E+01  0.10528E+02      982.00
  0.13939E+00  0.62767E+02    0.75000E-01  0.75000E-01 -0.15000E+00  0.00000E+00  0.00000E+00  0.00000E+00    0.23867E+02  0.15127E+02 -0.38994E+02  0.44923E+01 -0.47120E+01  0.10551E+02      982.00
  0.16268E+00  0.62982E+02    0.87500E-01  0.87500E-01 -0.17500E+00  0.00000E+00  0.00000E+00  0.00000E+00    0.24081E+02  0.15051E+02 -0.39132E+02  0.43524E+01 -0.47123E+01  0.10593E+02      982.00
  0.18598E+00  0.63221E+02    0.10000E+00  0.10000E+00 -0.20000E+00  0.00000E+00  0.00000E+00  0.00000E+00    0.24279E+02  0.15000E+02 -0.39278E+02  0.42360E+01 -0.47091E+01  0.10656E+02      982.00
  0.20928E+00  0.63471E+02    0.11250E+00  0.11250E+00 -0.22500E+00  0.00000E+00  0.00000E+00  0.00000E+00    0.24467E+02  0.14961E+02 -0.39428E+02  0.41389E+01 -0.47000E+01  0.10731E+02      982.00
  0.23258E+00  0.63730E+02    0.12500E+00  0.12500E+00 -0.25000E+00  0.00000E+00  0.00000E+00  0.00000E+00    0.24639E+02  0.14939E+02 -0.39579E+02  0.40591E+01 -0.46884E+01  0.10817E+02      982.00
  0.25587E+00  0.64006E+02    0.13750E+00  0.13750E+00 -0.27500E+00  0.00000E+00  0.00000E+00  0.00000E+00    0.24790E+02  0.14949E+02 -0.39739E+02  0.39986E+01 -0.46810E+01  0.10912E+02      982.00
  0.27915E+00  0.64276E+02    0.15000E+00  0.15000E+00 -0.30000E+00  0.00000E+00  0.00000E+00  0.00000E+00    0.24925E+02  0.14969E+02 -0.39893E+02  0.39485E+01 -0.46686E+01  0.11015E+02      982.00
  0.30242E+00  0.64554E+02    0.16250E+00  0.16250E+00 -0.32500E+00  0.00000E+00  0.00000E+00  0.00000E+00    0.25042E+02  0.15010E+02 -0.40052E+02  0.39103E+01 -0.46564E+01  0.11127E+02      982.00
  0.32569E+00  0.64824E+02    0.17500E+00  0.17500E+00 -0.35000E+00  0.00000E+00  0.00000E+00  0.00000E+00    0.25133E+02  0.15077E+02 -0.40211E+02  0.38873E+01 -0.46483E+01  0.11227E+02      982.00
  0.34895E+00  0.65084E+02    0.18750E+00  0.18750E+00 -0.37500E+00  0.00000E+00  0.00000E+00  0.00000E+00    0.25205E+02  0.15159E+02 -0.40365E+02  0.38727E+01 -0.46390E+01  0.11325E+02      982.00
  0.37221E+00  0.65335E+02    0.20000E+00  0.20000E+00 -0.40000E+00  0.00000E+00  0.00000E+00  0.00000E+00    0.25265E+02  0.15251E+02 -0.40516E+02  0.38683E+01 -0.46311E+01  0.11412E+02      982.00
  0.39546E+00  0.65575E+02    0.21250E+00  0.21250E+00 -0.42500E+00  0.00000E+00  0.00000E+00  0.00000E+00    0.25308E+02  0.15352E+02 -0.40660E+02  0.38664E+01 -0.46181E+01  0.11506E+02      982.00
  0.41872E+00  0.65808E+02    0.22500E+00  0.22500E+00 -0.45000E+00  0.00000E+00  0.00000E+00  0.00000E+00    0.25345E+02  0.15457E+02 -0.40801E+02  0.38708E+01 -0.46049E+01  0.11592E+02      982.00
  0.44197E+00  0.66025E+02    0.23750E+00  0.23750E+00 -0.47500E+00  0.00000E+00  0.00000E+00  0.00000E+00    0.25363E+02  0.15572E+02 -0.40935E+02  0.38749E+01 -0.45864E+01  0.11675E+02      982.00
  0.46522E+00  0.66221E+02    0.25000E+00  0.25000E+00 -0.50000E+00  0.00000E+00  0.00000E+00  0.00000E+00    0.25366E+02  0.15691E+02 -0.41057E+02  0.38827E+01 -0.45668E+01  0.11754E+02      982.00
  0.48847E+00  0.66403E+02    0.26250E+00  0.26250E+00 -0.52500E+00  0.00000E+00  0.00000E+00  0.00000E+00    0.25358E+02  0.15813E+02 -0.41171E+02  0.38922E+01 -0.45456E+01  0.11828E+02      982.00
  0.51172E+00  0.66572E+02    0.27500E+00  0.27500E+00 -0.55000E+00  0.00000E+00  0.00000E+00  0.00000E+00    0.25341E+02  0.15938E+02 -0.41278E+02  0.39029E+01 -0.45230E+01  0.11897E+02      982.00
  0.53497E+00  0.66728E+02    0.28750E+00  0.28750E+00 -0.57500E+00  0.00000E+00  0.00000E+00  0.00000E+00    0.25316E+02  0.16063E+02 -0.41379E+02  0.39142E+01 -0.44994E+01  0.11961E+02      982.00
  0.55822E+00  0.66872E+02    0.30000E+00  0.30000E+00 -0.60000E+00  0.00000E+00  0.00000E+00  0.00000E+00    0.25285E+02  0.16189E+02 -0.41473E+02  0.39255E+01 -0.44747E+01  0.12021E+02      982.00
  0.58148E+00  0.67005E+02    0.31250E+00  0.31250E+00 -0.62500E+00  0.00000E+00  0.00000E+00  0.00000E+00    0.25248E+02  0.16313E+02 -0.41561E+02  0.39372E+01 -0.44497E+01  0.12076E+02      982.00
  0.60474E+00  0.67118E+02    0.32500E+00  0.32500E+00 -0.65000E+00  0.00000E+00  0.00000E+00  0.00000E+00    0.25196E+02  0.16442E+02 -0.41637E+02  0.39475E+01 -0.44219E+01  0.12127E+02      982.00
  0.62800E+00  0.67232E+02    0.33750E+00  0.33750E+00 -0.67500E+00  0.00000E+00  0.00000E+00  0.00000E+00    0.25153E+02  0.16562E+02 -0.41715E+02  0.39591E+01 -0.43965E+01  0.12173E+02      982.00
  0.65127E+00  0.67338E+02    0.35000E+00  0.35000E+00 -0.70000E+00  0.00000E+00  0.00000E+00  0.00000E+00    0.25109E+02  0.16678E+02 -0.41787E+02  0.39702E+01 -0.43712E+01  0.12216E+02      982.00
  0.67454E+00  0.67435E+02    0.36250E+00  0.36250E+00 -0.72500E+00  0.00000E+00  0.00000E+00  0.00000E+00    0.25063E+02  0.16790E+02 -0.41854E+02  0.39809E+01 -0.43460E+01  0.12255E+02      982.00
  0.69782E+00  0.67524E+02    0.37500E+00  0.37500E+00 -0.75000E+00  0.00000E+00  0.00000E+00  0.00000E+00    0.25017E+02  0.16899E+02 -0.41916E+02  0.39911E+01 -0.43212E+01  0.12290E+02      982.00
  0.72109E+00  0.67600E+02    0.38750E+00  0.38750E+00 -0.77500E+00  0.00000E+00  0.00000E+00  0.00000E+00    0.24959E+02  0.17011E+02 -0.41969E+02  0.40021E+01 -0.42941E+01  0.12327E+02      982.00
  0.74438E+00  0.67678E+02    0.40000E+00  0.40000E+00 -0.80000E+00  0.00000E+00  0.00000E+00  0.00000E+00    0.24914E+02  0.17111E+02 -0.42024E+02  0.40116E+01 -0.42699E+01  0.12357E+02      982.00
  0.76766E+00  0.67749E+02    0.41250E+00  0.41250E+00 -0.82500E+00  0.00000E+00  0.00000E+00  0.00000E+00    0.24870E+02  0.17206E+02 -0.42075E+02  0.40205E+01 -0.42465E+01  0.12384E+02      982.00
  0.79095E+00  0.67815E+02    0.42500E+00  0.42500E+00 -0.85000E+00  0.00000E+00  0.00000E+00  0.00000E+00    0.24827E+02  0.17296E+02 -0.42123E+02  0.40289E+01 -0.42237E+01  0.12409E+02      982.00
  0.81424E+00  0.67876E+02    0.43750E+00  0.43750E+00 -0.87500E+00  0.00000E+00  0.00000E+00  0.00000E+00    0.24784E+02  0.17382E+02 -0.42167E+02  0.40370E+01 -0.42017E+01  0.12431E+02      982.00
  0.83754E+00  0.67930E+02    0.45000E+00  0.45000E+00 -0.90000E+00  0.00000E+00  0.00000E+00  0.00000E+00    0.24732E+02  0.17474E+02 -0.42206E+02  0.40466E+01 -0.41754E+01  0.12457E+02      982.00
  0.86084E+00  0.67983E+02    0.46250E+00  0.46250E+00 -0.92500E+00  0.00000E+00  0.00000E+00  0.00000E+00    0.24693E+02  0.17552E+02 -0.42245E+02  0.40543E+01 -0.41539E+01  0.12477E+02      982.00
  0.88414E+00  0.68032E+02    0.47500E+00  0.47500E+00 -0.95000E+00  0.00000E+00  0.00000E+00  0.00000E+00    0.24656E+02  0.17624E+02 -0.42281E+02  0.40614E+01 -0.41340E+01  0.12494E+02      982.00
  0.90745E+00  0.68074E+02    0.48750E+00  0.48750E+00 -0.97500E+00  0.00000E+00  0.00000E+00  0.00000E+00    0.24624E+02  0.17688E+02 -0.42312E+02  0.40686E+01 -0.41166E+01  0.12508E+02      982.00
  0.93075E+00  0.68080E+02    0.50000E+00  0.50000E+00 -0.10000E+01  0.00000E+00  0.00000E+00  0.00000E+00    0.24576E+02  0.17746E+02 -0.42322E+02  0.40604E+01 -0.40843E+01  0.12521E+02      982.00
