          Evm          Svm            E11          E22          E33          E23          E13          E12         SDEV11       SDEV22       SDEV33       SDEV23       SDEV13       SDEV12      TEMP
  0.00000E+00  0.66831E+02    0.00000E+00  0.00000E+00  0.00000E+00  0.00000E+00  0.00000E+00  0.00000E+00    0.20560E+02  0.23518E+02 -0.44078E+02 -0.42482E+01  0.25055E+01 -0.22691E+01      982.00
  0.24733E-01  0.66521E+02    0.12500E-01  0.12500E-01 -0.25000E-01  0.00000E+00  0.00000E+00  0.00000E+00    0.20552E+02  0.23319E+02 -0.43871E+02 -0.43281E+01  0.25778E+01 -0.20547E+01      982.00
  0.49464E-01  0.66258E+02    0.25000E-01  0.25000E-01 -0.50000E-01  0.00000E+00  0.00000E+00  0.00000E+00    0.20574E+02  0.23121E+02 -0.43695E+02 -0.44109E+01  0.26522E+01 -0.18283E+01      982.00
  0.74194E-01  0.66095E+02    0.37500E-01  0.37500E-01 -0.75000E-01  0.00000E+00  0.00000E+00  0.00000E+00    0.20657E+02  0.22928E+02 -0.43585E+02 -0.45018E+01  0.27285E+01 -0.15499E+01      982.00
  0.98923E-01  0.66009E+02    0.50000E-01  0.50000E-01 -0.10000E+00  0.00000E+00  0.00000E+00  0.00000E+00    0.20786E+02  0.22741E+02 -0.43528E+02 -0.45915E+01  0.28010E+01 -0.12346E+01      982.00
  0.12365E+00  0.66023E+02    0.62500E-01  0.62500E-01 -0.12500E+00  0.00000E+00  0.00000E+00  0.00000E+00    0.20972E+02  0.22563E+02 -0.43535E+02 -0.46805E+01  0.28682E+01 -0.87674E+00      982.00
  0.14838E+00  0.66106E+02    0.75000E-01  0.75000E-01 -0.15000E+00  0.00000E+00  0.00000E+00  0.00000E+00    0.21197E+02  0.22389E+02 -0.43586E+02 -0.47626E+01  0.29292E+01 -0.49241E+00      982.00
  0.17310E+00  0.66243E+02    0.87500E-01  0.87500E-01 -0.17500E+00  0.00000E+00  0.00000E+00  0.00000E+00    0.21448E+02  0.22221E+02 -0.43669E+02 -0.48351E+01  0.29853E+01 -0.96286E-01      982.00
  0.19782E+00  0.66423E+02    0.10000E+00  0.10000E+00 -0.20000E+00  0.00000E+00  0.00000E+00  0.00000E+00    0.21718E+02  0.22059E+02 -0.43777E+02 -0.48971E+01  0.30371E+01  0.29957E+00      982.00
  0.22254E+00  0.66620E+02    0.11250E+00  0.11250E+00 -0.22500E+00  0.00000E+00  0.00000E+00  0.00000E+00    0.22000E+02  0.21894E+02 -0.43894E+02 -0.49424E+01  0.30799E+01  0.69545E+00      982.00
  0.24725E+00  0.66839E+02    0.12500E+00  0.12500E+00 -0.25000E+00  0.00000E+00  0.00000E+00  0.00000E+00    0.22280E+02  0.21741E+02 -0.44021E+02 -0.49781E+01  0.31251E+01  0.10620E+01      982.00
  0.27195E+00  0.67038E+02    0.13750E+00  0.13750E+00 -0.27500E+00  0.00000E+00  0.00000E+00  0.00000E+00    0.22549E+02  0.21584E+02 -0.44133E+02 -0.49987E+01  0.31677E+01  0.14035E+01      982.00
  0.29663E+00  0.67225E+02    0.15000E+00  0.15000E+00 -0.30000E+00  0.00000E+00  0.00000E+00  0.00000E+00    0.22805E+02  0.21431E+02 -0.44236E+02 -0.50051E+01  0.32078E+01  0.17110E+01      982.00
  0.32131E+00  0.67385E+02    0.16250E+00  0.16250E+00 -0.32500E+00  0.00000E+00  0.00000E+00  0.00000E+00    0.23063E+02  0.21259E+02 -0.44323E+02 -0.49865E+01  0.32383E+01  0.20106E+01      982.00
  0.34598E+00  0.67542E+02    0.17500E+00  0.17500E+00 -0.35000E+00  0.00000E+00  0.00000E+00  0.00000E+00    0.23310E+02  0.21096E+02 -0.44406E+02 -0.49602E+01  0.32729E+01  0.22768E+01      982.00
  0.37063E+00  0.67670E+02    0.18750E+00  0.18750E+00 -0.37500E+00  0.00000E+00  0.00000E+00  0.00000E+00    0.23546E+02  0.20925E+02 -0.44471E+02 -0.49167E+01  0.33028E+01  0.25214E+01      982.00
  0.39527E+00  0.67775E+02    0.20000E+00  0.20000E+00 -0.40000E+00  0.00000E+00  0.00000E+00  0.00000E+00    0.23767E+02  0.20753E+02 -0.44520E+02 -0.48721E+01  0.33334E+01  0.27431E+01      982.00
  0.41991E+00  0.67859E+02    0.21250E+00  0.21250E+00 -0.42500E+00  0.00000E+00  0.00000E+00  0.00000E+00    0.23990E+02  0.20568E+02 -0.44557E+02 -0.48011E+01  0.33540E+01  0.29509E+01      982.00
  0.44453E+00  0.67926E+02    0.22500E+00  0.22500E+00 -0.45000E+00  0.00000E+00  0.00000E+00  0.00000E+00    0.24209E+02  0.20375E+02 -0.44584E+02 -0.47170E+01  0.33707E+01  0.31417E+01      982.00
  0.46914E+00  0.67982E+02    0.23750E+00  0.23750E+00 -0.47500E+00  0.00000E+00  0.00000E+00  0.00000E+00    0.24424E+02  0.20181E+02 -0.44605E+02 -0.46249E+01  0.33845E+01  0.33147E+01      982.00
  0.49375E+00  0.68011E+02    0.25000E+00  0.25000E+00 -0.50000E+00  0.00000E+00  0.00000E+00  0.00000E+00    0.24629E+02  0.19978E+02 -0.44607E+02 -0.45266E+01  0.33951E+01  0.34716E+01      982.00
  0.51834E+00  0.68043E+02    0.26250E+00  0.26250E+00 -0.52500E+00  0.00000E+00  0.00000E+00  0.00000E+00    0.24832E+02  0.19779E+02 -0.44612E+02 -0.44256E+01  0.34050E+01  0.36114E+01      982.00
  0.54293E+00  0.68068E+02    0.27500E+00  0.27500E+00 -0.55000E+00  0.00000E+00  0.00000E+00  0.00000E+00    0.25026E+02  0.19585E+02 -0.44611E+02 -0.43406E+01  0.34132E+01  0.37333E+01      982.00
  0.56751E+00  0.68088E+02    0.28750E+00  0.28750E+00 -0.57500E+00  0.00000E+00  0.00000E+00  0.00000E+00    0.25215E+02  0.19393E+02 -0.44608E+02 -0.42397E+01  0.34246E+01  0.38417E+01      982.00
  0.59208E+00  0.68101E+02    0.30000E+00  0.30000E+00 -0.60000E+00  0.00000E+00  0.00000E+00  0.00000E+00    0.25394E+02  0.19205E+02 -0.44600E+02 -0.41525E+01  0.34350E+01  0.39335E+01      982.00
  0.61663E+00  0.68123E+02    0.31250E+00  0.31250E+00 -0.62500E+00  0.00000E+00  0.00000E+00  0.00000E+00    0.25569E+02  0.19028E+02 -0.44597E+02 -0.40737E+01  0.34464E+01  0.40112E+01      982.00
  0.64118E+00  0.68141E+02    0.32500E+00  0.32500E+00 -0.65000E+00  0.00000E+00  0.00000E+00  0.00000E+00    0.25734E+02  0.18857E+02 -0.44591E+02 -0.40046E+01  0.34597E+01  0.40755E+01      982.00
  0.66572E+00  0.68162E+02    0.33750E+00  0.33750E+00 -0.67500E+00  0.00000E+00  0.00000E+00  0.00000E+00    0.25892E+02  0.18697E+02 -0.44588E+02 -0.39448E+01  0.34735E+01  0.41294E+01      982.00
  0.69025E+00  0.68182E+02    0.35000E+00  0.35000E+00 -0.70000E+00  0.00000E+00  0.00000E+00  0.00000E+00    0.26041E+02  0.18543E+02 -0.44584E+02 -0.38937E+01  0.34894E+01  0.41725E+01      982.00
  0.71478E+00  0.68201E+02    0.36250E+00  0.36250E+00 -0.72500E+00  0.00000E+00  0.00000E+00  0.00000E+00    0.26180E+02  0.18399E+02 -0.44579E+02 -0.38501E+01  0.35051E+01  0.42075E+01      982.00
  0.73929E+00  0.68222E+02    0.37500E+00  0.37500E+00 -0.75000E+00  0.00000E+00  0.00000E+00  0.00000E+00    0.26314E+02  0.18264E+02 -0.44577E+02 -0.38138E+01  0.35212E+01  0.42346E+01      982.00
  0.76379E+00  0.68238E+02    0.38750E+00  0.38750E+00 -0.77500E+00  0.00000E+00  0.00000E+00  0.00000E+00    0.26437E+02  0.18134E+02 -0.44571E+02 -0.37859E+01  0.35391E+01  0.42564E+01      982.00
  0.78828E+00  0.68266E+02    0.40000E+00  0.40000E+00 -0.80000E+00  0.00000E+00  0.00000E+00  0.00000E+00    0.26560E+02  0.18015E+02 -0.44574E+02 -0.37623E+01  0.35566E+01  0.42694E+01      982.00
  0.81277E+00  0.68289E+02    0.41250E+00  0.41250E+00 -0.82500E+00  0.00000E+00  0.00000E+00  0.00000E+00    0.26669E+02  0.17905E+02 -0.44574E+02 -0.37395E+01  0.35743E+01  0.42884E+01      982.00
  0.83725E+00  0.68311E+02    0.42500E+00  0.42500E+00 -0.85000E+00  0.00000E+00  0.00000E+00  0.00000E+00    0.26776E+02  0.17797E+02 -0.44573E+02 -0.37263E+01  0.35906E+01  0.42961E+01      982.00
  0.86172E+00  0.68330E+02    0.43750E+00  0.43750E+00 -0.87500E+00  0.00000E+00  0.00000E+00  0.00000E+00    0.26876E+02  0.17695E+02 -0.44571E+02 -0.37195E+01  0.36079E+01  0.42991E+01      982.00
  0.88618E+00  0.68351E+02    0.45000E+00  0.45000E+00 -0.90000E+00  0.00000E+00  0.00000E+00  0.00000E+00    0.26956E+02  0.17618E+02 -0.44574E+02 -0.37041E+01  0.36285E+01  0.42987E+01      982.00
  0.91063E+00  0.68372E+02    0.46250E+00  0.46250E+00 -0.92500E+00  0.00000E+00  0.00000E+00  0.00000E+00    0.27047E+02  0.17526E+02 -0.44574E+02 -0.37018E+01  0.36447E+01  0.42968E+01      982.00
  0.93508E+00  0.68321E+02    0.47500E+00  0.47500E+00 -0.95000E+00  0.00000E+00  0.00000E+00  0.00000E+00    0.27116E+02  0.17412E+02 -0.44528E+02 -0.36924E+01  0.36319E+01  0.42970E+01      982.00
  0.95952E+00  0.68295E+02    0.48750E+00  0.48750E+00 -0.97500E+00  0.00000E+00  0.00000E+00  0.00000E+00    0.27162E+02  0.17343E+02 -0.44505E+02 -0.36704E+01  0.36302E+01  0.42975E+01      982.00
  0.98396E+00  0.68258E+02    0.50000E+00  0.50000E+00 -0.10000E+01  0.00000E+00  0.00000E+00  0.00000E+00    0.27213E+02  0.17258E+02 -0.44472E+02 -0.36591E+01  0.36244E+01  0.42946E+01      982.00
