          Evm          Svm            E11          E22          E33          E23          E13          E12         SDEV11       SDEV22       SDEV33       SDEV23       SDEV13       SDEV12      TEMP
  0.00000E+00  0.52301E+02    0.00000E+00  0.00000E+00  0.00000E+00  0.00000E+00  0.00000E+00  0.00000E+00    0.20112E+02  0.14112E+02 -0.34224E+02 -0.23402E+01  0.42043E+01 -0.10983E+01      982.00
  0.24538E-01  0.52189E+02    0.12500E-01  0.12500E-01 -0.25000E-01  0.00000E+00  0.00000E+00  0.00000E+00    0.20302E+02  0.13837E+02 -0.34139E+02 -0.25440E+01  0.39180E+01 -0.12374E+01      982.00
  0.49069E-01  0.52137E+02    0.25000E-01  0.25000E-01 -0.50000E-01  0.00000E+00  0.00000E+00  0.00000E+00    0.20491E+02  0.13599E+02 -0.34090E+02 -0.27141E+01  0.36550E+01 -0.13655E+01      982.00
  0.73589E-01  0.52172E+02    0.37500E-01  0.37500E-01 -0.75000E-01  0.00000E+00  0.00000E+00  0.00000E+00    0.20707E+02  0.13384E+02 -0.34091E+02 -0.28841E+01  0.34203E+01 -0.14923E+01      982.00
  0.98092E-01  0.52310E+02    0.50000E-01  0.50000E-01 -0.10000E+00  0.00000E+00  0.00000E+00  0.00000E+00    0.20962E+02  0.13187E+02 -0.34149E+02 -0.30657E+01  0.32171E+01 -0.16235E+01      982.00
  0.12257E+00  0.52561E+02    0.62500E-01  0.62500E-01 -0.12500E+00  0.00000E+00  0.00000E+00  0.00000E+00    0.21262E+02  0.13007E+02 -0.34269E+02 -0.32681E+01  0.30449E+01 -0.17624E+01      982.00
  0.14702E+00  0.52921E+02    0.75000E-01  0.75000E-01 -0.15000E+00  0.00000E+00  0.00000E+00  0.00000E+00    0.21599E+02  0.12853E+02 -0.34452E+02 -0.34804E+01  0.29044E+01 -0.19088E+01      982.00
  0.17144E+00  0.53376E+02    0.87500E-01  0.87500E-01 -0.17500E+00  0.00000E+00  0.00000E+00  0.00000E+00    0.21967E+02  0.12723E+02 -0.34690E+02 -0.37055E+01  0.27905E+01 -0.20620E+01      982.00
  0.19581E+00  0.53919E+02    0.10000E+00  0.10000E+00 -0.20000E+00  0.00000E+00  0.00000E+00  0.00000E+00    0.22362E+02  0.12615E+02 -0.34978E+02 -0.39444E+01  0.26964E+01 -0.22207E+01      982.00
  0.22013E+00  0.54520E+02    0.11250E+00  0.11250E+00 -0.22500E+00  0.00000E+00  0.00000E+00  0.00000E+00    0.22767E+02  0.12534E+02 -0.35300E+02 -0.41823E+01  0.26226E+01 -0.23814E+01      982.00
  0.24441E+00  0.55169E+02    0.12500E+00  0.12500E+00 -0.25000E+00  0.00000E+00  0.00000E+00  0.00000E+00    0.23178E+02  0.12474E+02 -0.35652E+02 -0.44245E+01  0.25591E+01 -0.25414E+01      982.00
  0.26865E+00  0.55842E+02    0.13750E+00  0.13750E+00 -0.27500E+00  0.00000E+00  0.00000E+00  0.00000E+00    0.23583E+02  0.12439E+02 -0.36021E+02 -0.46563E+01  0.25086E+01 -0.26981E+01      982.00
  0.29284E+00  0.56532E+02    0.15000E+00  0.15000E+00 -0.30000E+00  0.00000E+00  0.00000E+00  0.00000E+00    0.23980E+02  0.12422E+02 -0.36402E+02 -0.48862E+01  0.24623E+01 -0.28492E+01      982.00
  0.31699E+00  0.57218E+02    0.16250E+00  0.16250E+00 -0.32500E+00  0.00000E+00  0.00000E+00  0.00000E+00    0.24360E+02  0.12426E+02 -0.36785E+02 -0.50968E+01  0.24232E+01 -0.29929E+01      982.00
  0.34109E+00  0.57893E+02    0.17500E+00  0.17500E+00 -0.35000E+00  0.00000E+00  0.00000E+00  0.00000E+00    0.24721E+02  0.12446E+02 -0.37167E+02 -0.52931E+01  0.23869E+01 -0.31279E+01      982.00
  0.36517E+00  0.58551E+02    0.18750E+00  0.18750E+00 -0.37500E+00  0.00000E+00  0.00000E+00  0.00000E+00    0.25060E+02  0.12482E+02 -0.37542E+02 -0.54802E+01  0.23487E+01 -0.32524E+01      982.00
  0.38921E+00  0.59186E+02    0.20000E+00  0.20000E+00 -0.40000E+00  0.00000E+00  0.00000E+00  0.00000E+00    0.25378E+02  0.12531E+02 -0.37909E+02 -0.56429E+01  0.23149E+01 -0.33678E+01      982.00
  0.41323E+00  0.59793E+02    0.21250E+00  0.21250E+00 -0.42500E+00  0.00000E+00  0.00000E+00  0.00000E+00    0.25674E+02  0.12592E+02 -0.38265E+02 -0.57878E+01  0.22815E+01 -0.34732E+01      982.00
  0.43723E+00  0.60368E+02    0.22500E+00  0.22500E+00 -0.45000E+00  0.00000E+00  0.00000E+00  0.00000E+00    0.25944E+02  0.12662E+02 -0.38605E+02 -0.59245E+01  0.22448E+01 -0.35683E+01      982.00
  0.46121E+00  0.60914E+02    0.23750E+00  0.23750E+00 -0.47500E+00  0.00000E+00  0.00000E+00  0.00000E+00    0.26195E+02  0.12740E+02 -0.38935E+02 -0.60335E+01  0.22114E+01 -0.36541E+01      982.00
  0.48518E+00  0.61429E+02    0.25000E+00  0.25000E+00 -0.50000E+00  0.00000E+00  0.00000E+00  0.00000E+00    0.26424E+02  0.12826E+02 -0.39250E+02 -0.61254E+01  0.21781E+01 -0.37310E+01      982.00
  0.50914E+00  0.61896E+02    0.26250E+00  0.26250E+00 -0.52500E+00  0.00000E+00  0.00000E+00  0.00000E+00    0.26625E+02  0.12916E+02 -0.39541E+02 -0.62000E+01  0.21411E+01 -0.37949E+01      982.00
  0.53310E+00  0.62350E+02    0.27500E+00  0.27500E+00 -0.55000E+00  0.00000E+00  0.00000E+00  0.00000E+00    0.26817E+02  0.13011E+02 -0.39828E+02 -0.62609E+01  0.21080E+01 -0.38557E+01      982.00
  0.55705E+00  0.62775E+02    0.28750E+00  0.28750E+00 -0.57500E+00  0.00000E+00  0.00000E+00  0.00000E+00    0.26991E+02  0.13109E+02 -0.40100E+02 -0.63084E+01  0.20751E+01 -0.39093E+01      982.00
  0.58101E+00  0.63164E+02    0.30000E+00  0.30000E+00 -0.60000E+00  0.00000E+00  0.00000E+00  0.00000E+00    0.27144E+02  0.13207E+02 -0.40350E+02 -0.63560E+01  0.20377E+01 -0.39576E+01      982.00
  0.60496E+00  0.63534E+02    0.31250E+00  0.31250E+00 -0.62500E+00  0.00000E+00  0.00000E+00  0.00000E+00    0.27287E+02  0.13308E+02 -0.40595E+02 -0.63789E+01  0.20046E+01 -0.39984E+01      982.00
  0.62892E+00  0.63878E+02    0.32500E+00  0.32500E+00 -0.65000E+00  0.00000E+00  0.00000E+00  0.00000E+00    0.27416E+02  0.13410E+02 -0.40826E+02 -0.63914E+01  0.19725E+01 -0.40338E+01      982.00
  0.65289E+00  0.64199E+02    0.33750E+00  0.33750E+00 -0.67500E+00  0.00000E+00  0.00000E+00  0.00000E+00    0.27533E+02  0.13512E+02 -0.41045E+02 -0.63955E+01  0.19408E+01 -0.40646E+01      982.00
  0.67687E+00  0.64502E+02    0.35000E+00  0.35000E+00 -0.70000E+00  0.00000E+00  0.00000E+00  0.00000E+00    0.27640E+02  0.13613E+02 -0.41253E+02 -0.63983E+01  0.19010E+01 -0.40949E+01      982.00
  0.70085E+00  0.64778E+02    0.36250E+00  0.36250E+00 -0.72500E+00  0.00000E+00  0.00000E+00  0.00000E+00    0.27734E+02  0.13712E+02 -0.41447E+02 -0.63874E+01  0.18687E+01 -0.41167E+01      982.00
  0.72484E+00  0.65035E+02    0.37500E+00  0.37500E+00 -0.75000E+00  0.00000E+00  0.00000E+00  0.00000E+00    0.27819E+02  0.13810E+02 -0.41629E+02 -0.63710E+01  0.18382E+01 -0.41356E+01      982.00
  0.74885E+00  0.65275E+02    0.38750E+00  0.38750E+00 -0.77500E+00  0.00000E+00  0.00000E+00  0.00000E+00    0.27895E+02  0.13906E+02 -0.41801E+02 -0.63506E+01  0.18083E+01 -0.41518E+01      982.00
  0.77286E+00  0.65496E+02    0.40000E+00  0.40000E+00 -0.80000E+00  0.00000E+00  0.00000E+00  0.00000E+00    0.27961E+02  0.13999E+02 -0.41961E+02 -0.63321E+01  0.17801E+01 -0.41662E+01      982.00
  0.79689E+00  0.65703E+02    0.41250E+00  0.41250E+00 -0.82500E+00  0.00000E+00  0.00000E+00  0.00000E+00    0.28023E+02  0.14091E+02 -0.42113E+02 -0.63063E+01  0.17514E+01 -0.41778E+01      982.00
  0.82092E+00  0.65894E+02    0.42500E+00  0.42500E+00 -0.85000E+00  0.00000E+00  0.00000E+00  0.00000E+00    0.28075E+02  0.14180E+02 -0.42255E+02 -0.62806E+01  0.17317E+01 -0.41864E+01      982.00
  0.84497E+00  0.66075E+02    0.43750E+00  0.43750E+00 -0.87500E+00  0.00000E+00  0.00000E+00  0.00000E+00    0.28124E+02  0.14266E+02 -0.42390E+02 -0.62528E+01  0.17052E+01 -0.41953E+01      982.00
  0.86903E+00  0.66183E+02    0.45000E+00  0.45000E+00 -0.90000E+00  0.00000E+00  0.00000E+00  0.00000E+00    0.28147E+02  0.14339E+02 -0.42486E+02 -0.61764E+01  0.16813E+01 -0.41961E+01      982.00
  0.89310E+00  0.66274E+02    0.46250E+00  0.46250E+00 -0.92500E+00  0.00000E+00  0.00000E+00  0.00000E+00    0.28163E+02  0.14407E+02 -0.42569E+02 -0.61132E+01  0.16497E+01 -0.41931E+01      982.00
  0.91719E+00  0.66359E+02    0.47500E+00  0.47500E+00 -0.95000E+00  0.00000E+00  0.00000E+00  0.00000E+00    0.28175E+02  0.14472E+02 -0.42647E+02 -0.60535E+01  0.16182E+01 -0.41895E+01      982.00
  0.94129E+00  0.66439E+02    0.48750E+00  0.48750E+00 -0.97500E+00  0.00000E+00  0.00000E+00  0.00000E+00    0.28186E+02  0.14534E+02 -0.42721E+02 -0.59965E+01  0.15877E+01 -0.41856E+01      982.00
  0.96540E+00  0.66514E+02    0.50000E+00  0.50000E+00 -0.10000E+01  0.00000E+00  0.00000E+00  0.00000E+00    0.28195E+02  0.14595E+02 -0.42790E+02 -0.59420E+01  0.15583E+01 -0.41816E+01      982.00
