          Evm          Svm            E11          E22          E33          E23          E13          E12         SDEV11       SDEV22       SDEV33       SDEV23       SDEV13       SDEV12      TEMP
  0.00000E+00  0.60786E+02    0.00000E+00  0.00000E+00  0.00000E+00  0.00000E+00  0.00000E+00  0.00000E+00    0.20609E+02  0.17443E+02 -0.38052E+02  0.56903E+01  0.62590E+01 -0.84614E+01      982.00
  0.23475E-01  0.60761E+02    0.12500E-01  0.12500E-01 -0.25000E-01  0.00000E+00  0.00000E+00  0.00000E+00    0.20534E+02  0.17616E+02 -0.38150E+02  0.57058E+01  0.60548E+01 -0.82299E+01      982.00
  0.47020E-01  0.60798E+02    0.25000E-01  0.25000E-01 -0.50000E-01  0.00000E+00  0.00000E+00  0.00000E+00    0.20528E+02  0.17734E+02 -0.38262E+02  0.57309E+01  0.58890E+01 -0.80410E+01      982.00
  0.70620E-01  0.60893E+02    0.37500E-01  0.37500E-01 -0.75000E-01  0.00000E+00  0.00000E+00  0.00000E+00    0.20557E+02  0.17835E+02 -0.38392E+02  0.57599E+01  0.57564E+01 -0.78975E+01      982.00
  0.94263E-01  0.61038E+02    0.50000E-01  0.50000E-01 -0.10000E+00  0.00000E+00  0.00000E+00  0.00000E+00    0.20615E+02  0.17924E+02 -0.38540E+02  0.57784E+01  0.56522E+01 -0.77940E+01      982.00
  0.11794E+00  0.61216E+02    0.62500E-01  0.62500E-01 -0.12500E+00  0.00000E+00  0.00000E+00  0.00000E+00    0.20690E+02  0.18008E+02 -0.38698E+02  0.57843E+01  0.55685E+01 -0.77269E+01      982.00
  0.14165E+00  0.61434E+02    0.75000E-01  0.75000E-01 -0.15000E+00  0.00000E+00  0.00000E+00  0.00000E+00    0.20778E+02  0.18095E+02 -0.38873E+02  0.57823E+01  0.55038E+01 -0.76938E+01      982.00
  0.16538E+00  0.61687E+02    0.87500E-01  0.87500E-01 -0.17500E+00  0.00000E+00  0.00000E+00  0.00000E+00    0.20872E+02  0.18194E+02 -0.39066E+02  0.57687E+01  0.54499E+01 -0.76832E+01      982.00
  0.18912E+00  0.61977E+02    0.10000E+00  0.10000E+00 -0.20000E+00  0.00000E+00  0.00000E+00  0.00000E+00    0.20973E+02  0.18306E+02 -0.39279E+02  0.57470E+01  0.54083E+01 -0.76937E+01      982.00
  0.21289E+00  0.62291E+02    0.11250E+00  0.11250E+00 -0.22500E+00  0.00000E+00  0.00000E+00  0.00000E+00    0.21071E+02  0.18434E+02 -0.39505E+02  0.57208E+01  0.53730E+01 -0.77182E+01      982.00
  0.23667E+00  0.62624E+02    0.12500E+00  0.12500E+00 -0.25000E+00  0.00000E+00  0.00000E+00  0.00000E+00    0.21162E+02  0.18580E+02 -0.39742E+02  0.56917E+01  0.53424E+01 -0.77517E+01      982.00
  0.26047E+00  0.62968E+02    0.13750E+00  0.13750E+00 -0.27500E+00  0.00000E+00  0.00000E+00  0.00000E+00    0.21243E+02  0.18742E+02 -0.39985E+02  0.56606E+01  0.53159E+01 -0.77902E+01      982.00
  0.28428E+00  0.63318E+02    0.15000E+00  0.15000E+00 -0.30000E+00  0.00000E+00  0.00000E+00  0.00000E+00    0.21313E+02  0.18919E+02 -0.40232E+02  0.56282E+01  0.52929E+01 -0.78301E+01      982.00
  0.30811E+00  0.63674E+02    0.16250E+00  0.16250E+00 -0.32500E+00  0.00000E+00  0.00000E+00  0.00000E+00    0.21378E+02  0.19104E+02 -0.40482E+02  0.55931E+01  0.52756E+01 -0.78708E+01      982.00
  0.33195E+00  0.64017E+02    0.17500E+00  0.17500E+00 -0.35000E+00  0.00000E+00  0.00000E+00  0.00000E+00    0.21421E+02  0.19304E+02 -0.40725E+02  0.55577E+01  0.52591E+01 -0.79067E+01      982.00
  0.35581E+00  0.64349E+02    0.18750E+00  0.18750E+00 -0.37500E+00  0.00000E+00  0.00000E+00  0.00000E+00    0.21449E+02  0.19512E+02 -0.40961E+02  0.55213E+01  0.52451E+01 -0.79379E+01      982.00
  0.37968E+00  0.64675E+02    0.20000E+00  0.20000E+00 -0.40000E+00  0.00000E+00  0.00000E+00  0.00000E+00    0.21470E+02  0.19722E+02 -0.41192E+02  0.54813E+01  0.52369E+01 -0.79661E+01      982.00
  0.40356E+00  0.64977E+02    0.21250E+00  0.21250E+00 -0.42500E+00  0.00000E+00  0.00000E+00  0.00000E+00    0.21468E+02  0.19941E+02 -0.41409E+02  0.54422E+01  0.52279E+01 -0.79854E+01      982.00
  0.42746E+00  0.65262E+02    0.22500E+00  0.22500E+00 -0.45000E+00  0.00000E+00  0.00000E+00  0.00000E+00    0.21451E+02  0.20164E+02 -0.41615E+02  0.54022E+01  0.52207E+01 -0.79983E+01      982.00
  0.45137E+00  0.65531E+02    0.23750E+00  0.23750E+00 -0.47500E+00  0.00000E+00  0.00000E+00  0.00000E+00    0.21424E+02  0.20388E+02 -0.41812E+02  0.53589E+01  0.52141E+01 -0.80043E+01      982.00
  0.47530E+00  0.65769E+02    0.25000E+00  0.25000E+00 -0.50000E+00  0.00000E+00  0.00000E+00  0.00000E+00    0.21371E+02  0.20618E+02 -0.41988E+02  0.53209E+01  0.52060E+01 -0.80022E+01      982.00
  0.49924E+00  0.66000E+02    0.26250E+00  0.26250E+00 -0.52500E+00  0.00000E+00  0.00000E+00  0.00000E+00    0.21316E+02  0.20844E+02 -0.42159E+02  0.52785E+01  0.52037E+01 -0.79966E+01      982.00
  0.52320E+00  0.66213E+02    0.27500E+00  0.27500E+00 -0.55000E+00  0.00000E+00  0.00000E+00  0.00000E+00    0.21250E+02  0.21068E+02 -0.42318E+02  0.52348E+01  0.52030E+01 -0.79853E+01      982.00
  0.54716E+00  0.66409E+02    0.28750E+00  0.28750E+00 -0.57500E+00  0.00000E+00  0.00000E+00  0.00000E+00    0.21175E+02  0.21291E+02 -0.42466E+02  0.51902E+01  0.52033E+01 -0.79687E+01      982.00
  0.57114E+00  0.66588E+02    0.30000E+00  0.30000E+00 -0.60000E+00  0.00000E+00  0.00000E+00  0.00000E+00    0.21092E+02  0.21511E+02 -0.42602E+02  0.51447E+01  0.52046E+01 -0.79472E+01      982.00
  0.59513E+00  0.66751E+02    0.31250E+00  0.31250E+00 -0.62500E+00  0.00000E+00  0.00000E+00  0.00000E+00    0.21000E+02  0.21728E+02 -0.42728E+02  0.50985E+01  0.52065E+01 -0.79209E+01      982.00
  0.61914E+00  0.66901E+02    0.32500E+00  0.32500E+00 -0.65000E+00  0.00000E+00  0.00000E+00  0.00000E+00    0.20902E+02  0.21942E+02 -0.42844E+02  0.50517E+01  0.52093E+01 -0.78906E+01      982.00
  0.64315E+00  0.67031E+02    0.33750E+00  0.33750E+00 -0.67500E+00  0.00000E+00  0.00000E+00  0.00000E+00    0.20789E+02  0.22159E+02 -0.42947E+02  0.50103E+01  0.52085E+01 -0.78535E+01      982.00
  0.66718E+00  0.67156E+02    0.35000E+00  0.35000E+00 -0.70000E+00  0.00000E+00  0.00000E+00  0.00000E+00    0.20679E+02  0.22366E+02 -0.43046E+02  0.49627E+01  0.52122E+01 -0.78157E+01      982.00
  0.69122E+00  0.67269E+02    0.36250E+00  0.36250E+00 -0.72500E+00  0.00000E+00  0.00000E+00  0.00000E+00    0.20566E+02  0.22570E+02 -0.43136E+02  0.49144E+01  0.52167E+01 -0.77748E+01      982.00
  0.71526E+00  0.67371E+02    0.37500E+00  0.37500E+00 -0.75000E+00  0.00000E+00  0.00000E+00  0.00000E+00    0.20449E+02  0.22769E+02 -0.43219E+02  0.48658E+01  0.52217E+01 -0.77308E+01      982.00
  0.73932E+00  0.67459E+02    0.38750E+00  0.38750E+00 -0.77500E+00  0.00000E+00  0.00000E+00  0.00000E+00    0.20315E+02  0.22977E+02 -0.43292E+02  0.48197E+01  0.52230E+01 -0.76765E+01      982.00
  0.76339E+00  0.67542E+02    0.40000E+00  0.40000E+00 -0.80000E+00  0.00000E+00  0.00000E+00  0.00000E+00    0.20192E+02  0.23170E+02 -0.43361E+02  0.47709E+01  0.52281E+01 -0.76269E+01      982.00
  0.78746E+00  0.67617E+02    0.41250E+00  0.41250E+00 -0.82500E+00  0.00000E+00  0.00000E+00  0.00000E+00    0.20067E+02  0.23357E+02 -0.43424E+02  0.47215E+01  0.52341E+01 -0.75750E+01      982.00
  0.81154E+00  0.67684E+02    0.42500E+00  0.42500E+00 -0.85000E+00  0.00000E+00  0.00000E+00  0.00000E+00    0.19940E+02  0.23541E+02 -0.43481E+02  0.46721E+01  0.52405E+01 -0.75208E+01      982.00
  0.83563E+00  0.67744E+02    0.43750E+00  0.43750E+00 -0.87500E+00  0.00000E+00  0.00000E+00  0.00000E+00    0.19811E+02  0.23722E+02 -0.43533E+02  0.46227E+01  0.52470E+01 -0.74644E+01      982.00
  0.85973E+00  0.67790E+02    0.45000E+00  0.45000E+00 -0.90000E+00  0.00000E+00  0.00000E+00  0.00000E+00    0.19682E+02  0.23893E+02 -0.43575E+02  0.45791E+01  0.52477E+01 -0.74043E+01      982.00
  0.88384E+00  0.67774E+02    0.46250E+00  0.46250E+00 -0.92500E+00  0.00000E+00  0.00000E+00  0.00000E+00    0.19536E+02  0.24052E+02 -0.43587E+02  0.44899E+01  0.52309E+01 -0.73215E+01      982.00
  0.90795E+00  0.67760E+02    0.47500E+00  0.47500E+00 -0.95000E+00  0.00000E+00  0.00000E+00  0.00000E+00    0.19407E+02  0.24187E+02 -0.43594E+02  0.44226E+01  0.52178E+01 -0.72529E+01      982.00
  0.93208E+00  0.67745E+02    0.48750E+00  0.48750E+00 -0.97500E+00  0.00000E+00  0.00000E+00  0.00000E+00    0.19280E+02  0.24320E+02 -0.43600E+02  0.43576E+01  0.52056E+01 -0.71846E+01      982.00
  0.95622E+00  0.67731E+02    0.50000E+00  0.50000E+00 -0.10000E+01  0.00000E+00  0.00000E+00  0.00000E+00    0.19150E+02  0.24455E+02 -0.43605E+02  0.42970E+01  0.51945E+01 -0.71158E+01      982.00
