          Evm          Svm            E11          E22          E33          E23          E13          E12         SDEV11       SDEV22       SDEV33       SDEV23       SDEV13       SDEV12      TEMP
  0.00000E+00  0.60864E+02    0.00000E+00  0.00000E+00  0.00000E+00  0.00000E+00  0.00000E+00  0.00000E+00    0.23742E+02  0.15477E+02 -0.39219E+02  0.78782E+01  0.88971E+00  0.11269E+01      982.00
  0.24164E-01  0.60549E+02    0.12500E-01  0.12500E-01 -0.25000E-01  0.00000E+00  0.00000E+00  0.00000E+00    0.23878E+02  0.15196E+02 -0.39074E+02  0.74532E+01  0.94026E+00  0.13058E+01      982.00
  0.48364E-01  0.60256E+02    0.25000E-01  0.25000E-01 -0.50000E-01  0.00000E+00  0.00000E+00  0.00000E+00    0.24013E+02  0.14921E+02 -0.38933E+02  0.70498E+01  0.94429E+00  0.14600E+01      982.00
  0.72594E-01  0.60019E+02    0.37500E-01  0.37500E-01 -0.75000E-01  0.00000E+00  0.00000E+00  0.00000E+00    0.24148E+02  0.14672E+02 -0.38820E+02  0.66767E+01  0.93695E+00  0.16037E+01      982.00
  0.96849E-01  0.59886E+02    0.50000E-01  0.50000E-01 -0.10000E+00  0.00000E+00  0.00000E+00  0.00000E+00    0.24288E+02  0.14474E+02 -0.38762E+02  0.63749E+01  0.91620E+00  0.17341E+01      982.00
  0.12112E+00  0.59879E+02    0.62500E-01  0.62500E-01 -0.12500E+00  0.00000E+00  0.00000E+00  0.00000E+00    0.24443E+02  0.14334E+02 -0.38777E+02  0.61364E+01  0.89790E+00  0.18577E+01      982.00
  0.14541E+00  0.60006E+02    0.75000E-01  0.75000E-01 -0.15000E+00  0.00000E+00  0.00000E+00  0.00000E+00    0.24616E+02  0.14252E+02 -0.38869E+02  0.59681E+01  0.88039E+00  0.19785E+01      982.00
  0.16970E+00  0.60243E+02    0.87500E-01  0.87500E-01 -0.17500E+00  0.00000E+00  0.00000E+00  0.00000E+00    0.24805E+02  0.14223E+02 -0.39028E+02  0.58459E+01  0.87110E+00  0.21017E+01      982.00
  0.19399E+00  0.60576E+02    0.10000E+00  0.10000E+00 -0.20000E+00  0.00000E+00  0.00000E+00  0.00000E+00    0.25006E+02  0.14237E+02 -0.39243E+02  0.57812E+01  0.86514E+00  0.22231E+01      982.00
  0.21828E+00  0.60970E+02    0.11250E+00  0.11250E+00 -0.22500E+00  0.00000E+00  0.00000E+00  0.00000E+00    0.25211E+02  0.14286E+02 -0.39496E+02  0.57504E+01  0.86225E+00  0.23439E+01      982.00
  0.24258E+00  0.61392E+02    0.12500E+00  0.12500E+00 -0.25000E+00  0.00000E+00  0.00000E+00  0.00000E+00    0.25409E+02  0.14358E+02 -0.39766E+02  0.57391E+01  0.86356E+00  0.24702E+01      982.00
  0.26687E+00  0.61842E+02    0.13750E+00  0.13750E+00 -0.27500E+00  0.00000E+00  0.00000E+00  0.00000E+00    0.25603E+02  0.14450E+02 -0.40053E+02  0.57514E+01  0.86358E+00  0.25876E+01      982.00
  0.29115E+00  0.62290E+02    0.15000E+00  0.15000E+00 -0.30000E+00  0.00000E+00  0.00000E+00  0.00000E+00    0.25785E+02  0.14555E+02 -0.40339E+02  0.57738E+01  0.86222E+00  0.27009E+01      982.00
  0.31544E+00  0.62726E+02    0.16250E+00  0.16250E+00 -0.32500E+00  0.00000E+00  0.00000E+00  0.00000E+00    0.25953E+02  0.14665E+02 -0.40618E+02  0.58016E+01  0.85932E+00  0.28098E+01      982.00
  0.33972E+00  0.63123E+02    0.17500E+00  0.17500E+00 -0.35000E+00  0.00000E+00  0.00000E+00  0.00000E+00    0.26099E+02  0.14776E+02 -0.40874E+02  0.58241E+01  0.85469E+00  0.29070E+01      982.00
  0.36401E+00  0.63506E+02    0.18750E+00  0.18750E+00 -0.37500E+00  0.00000E+00  0.00000E+00  0.00000E+00    0.26231E+02  0.14888E+02 -0.41118E+02  0.58585E+01  0.85119E+00  0.30164E+01      982.00
  0.38829E+00  0.63872E+02    0.20000E+00  0.20000E+00 -0.40000E+00  0.00000E+00  0.00000E+00  0.00000E+00    0.26353E+02  0.15000E+02 -0.41354E+02  0.58879E+01  0.84332E+00  0.31109E+01      982.00
  0.41256E+00  0.64210E+02    0.21250E+00  0.21250E+00 -0.42500E+00  0.00000E+00  0.00000E+00  0.00000E+00    0.26461E+02  0.15110E+02 -0.41572E+02  0.59151E+01  0.83297E+00  0.32004E+01      982.00
  0.43684E+00  0.64528E+02    0.22500E+00  0.22500E+00 -0.45000E+00  0.00000E+00  0.00000E+00  0.00000E+00    0.26555E+02  0.15221E+02 -0.41775E+02  0.59459E+01  0.82132E+00  0.33017E+01      982.00
  0.46112E+00  0.64812E+02    0.23750E+00  0.23750E+00 -0.47500E+00  0.00000E+00  0.00000E+00  0.00000E+00    0.26636E+02  0.15324E+02 -0.41960E+02  0.59675E+01  0.80850E+00  0.33831E+01      982.00
  0.48540E+00  0.65071E+02    0.25000E+00  0.25000E+00 -0.50000E+00  0.00000E+00  0.00000E+00  0.00000E+00    0.26707E+02  0.15422E+02 -0.42129E+02  0.59866E+01  0.79344E+00  0.34602E+01      982.00
  0.50968E+00  0.65309E+02    0.26250E+00  0.26250E+00 -0.52500E+00  0.00000E+00  0.00000E+00  0.00000E+00    0.26768E+02  0.15517E+02 -0.42284E+02  0.60035E+01  0.77710E+00  0.35339E+01      982.00
  0.53396E+00  0.65526E+02    0.27500E+00  0.27500E+00 -0.55000E+00  0.00000E+00  0.00000E+00  0.00000E+00    0.26819E+02  0.15607E+02 -0.42427E+02  0.60184E+01  0.75980E+00  0.36048E+01      982.00
  0.55824E+00  0.65725E+02    0.28750E+00  0.28750E+00 -0.57500E+00  0.00000E+00  0.00000E+00  0.00000E+00    0.26863E+02  0.15694E+02 -0.42557E+02  0.60315E+01  0.74168E+00  0.36731E+01      982.00
  0.58252E+00  0.65920E+02    0.30000E+00  0.30000E+00 -0.60000E+00  0.00000E+00  0.00000E+00  0.00000E+00    0.26897E+02  0.15786E+02 -0.42683E+02  0.60489E+01  0.71696E+00  0.37583E+01      982.00
  0.60680E+00  0.66065E+02    0.31250E+00  0.31250E+00 -0.62500E+00  0.00000E+00  0.00000E+00  0.00000E+00    0.26923E+02  0.15854E+02 -0.42777E+02  0.60636E+01  0.70628E+00  0.38162E+01      982.00
  0.63108E+00  0.66219E+02    0.32500E+00  0.32500E+00 -0.65000E+00  0.00000E+00  0.00000E+00  0.00000E+00    0.26949E+02  0.15930E+02 -0.42879E+02  0.60714E+01  0.68578E+00  0.38760E+01      982.00
  0.65536E+00  0.66360E+02    0.33750E+00  0.33750E+00 -0.67500E+00  0.00000E+00  0.00000E+00  0.00000E+00    0.26968E+02  0.16004E+02 -0.42972E+02  0.60789E+01  0.66501E+00  0.39350E+01      982.00
  0.67965E+00  0.66489E+02    0.35000E+00  0.35000E+00 -0.70000E+00  0.00000E+00  0.00000E+00  0.00000E+00    0.26983E+02  0.16074E+02 -0.43057E+02  0.60858E+01  0.64392E+00  0.39923E+01      982.00
  0.70393E+00  0.66607E+02    0.36250E+00  0.36250E+00 -0.72500E+00  0.00000E+00  0.00000E+00  0.00000E+00    0.26994E+02  0.16141E+02 -0.43136E+02  0.60921E+01  0.62258E+00  0.40481E+01      982.00
  0.72822E+00  0.66717E+02    0.37500E+00  0.37500E+00 -0.75000E+00  0.00000E+00  0.00000E+00  0.00000E+00    0.27002E+02  0.16206E+02 -0.43208E+02  0.60982E+01  0.60103E+00  0.41026E+01      982.00
  0.75250E+00  0.66818E+02    0.38750E+00  0.38750E+00 -0.77500E+00  0.00000E+00  0.00000E+00  0.00000E+00    0.27005E+02  0.16269E+02 -0.43275E+02  0.61039E+01  0.57931E+00  0.41558E+01      982.00
  0.77679E+00  0.66911E+02    0.40000E+00  0.40000E+00 -0.80000E+00  0.00000E+00  0.00000E+00  0.00000E+00    0.27006E+02  0.16330E+02 -0.43336E+02  0.61095E+01  0.55747E+00  0.42078E+01      982.00
  0.80108E+00  0.66997E+02    0.41250E+00  0.41250E+00 -0.82500E+00  0.00000E+00  0.00000E+00  0.00000E+00    0.27005E+02  0.16388E+02 -0.43393E+02  0.61150E+01  0.53553E+00  0.42587E+01      982.00
  0.82537E+00  0.67077E+02    0.42500E+00  0.42500E+00 -0.85000E+00  0.00000E+00  0.00000E+00  0.00000E+00    0.27000E+02  0.16445E+02 -0.43445E+02  0.61204E+01  0.51353E+00  0.43086E+01      982.00
  0.84965E+00  0.67151E+02    0.43750E+00  0.43750E+00 -0.87500E+00  0.00000E+00  0.00000E+00  0.00000E+00    0.26994E+02  0.16500E+02 -0.43494E+02  0.61258E+01  0.49149E+00  0.43575E+01      982.00
  0.87394E+00  0.67149E+02    0.45000E+00  0.45000E+00 -0.90000E+00  0.00000E+00  0.00000E+00  0.00000E+00    0.26971E+02  0.16532E+02 -0.43503E+02  0.60829E+01  0.47166E+00  0.43786E+01      982.00
  0.89824E+00  0.67153E+02    0.46250E+00  0.46250E+00 -0.92500E+00  0.00000E+00  0.00000E+00  0.00000E+00    0.26952E+02  0.16557E+02 -0.43509E+02  0.60518E+01  0.44741E+00  0.44194E+01      982.00
  0.92253E+00  0.67157E+02    0.47500E+00  0.47500E+00 -0.95000E+00  0.00000E+00  0.00000E+00  0.00000E+00    0.26918E+02  0.16600E+02 -0.43517E+02  0.60353E+01  0.42525E+00  0.44537E+01      982.00
  0.94683E+00  0.67161E+02    0.48750E+00  0.48750E+00 -0.97500E+00  0.00000E+00  0.00000E+00  0.00000E+00    0.26890E+02  0.16633E+02 -0.43524E+02  0.60152E+01  0.40286E+00  0.44895E+01      982.00
  0.97114E+00  0.67165E+02    0.50000E+00  0.50000E+00 -0.10000E+01  0.00000E+00  0.00000E+00  0.00000E+00    0.26864E+02  0.16666E+02 -0.43530E+02  0.59960E+01  0.38014E+00  0.45260E+01      982.00
