          Evm          Svm            E11          E22          E33          E23          E13          E12         SDEV11       SDEV22       SDEV33       SDEV23       SDEV13       SDEV12      TEMP
  0.00000E+00  0.62715E+02    0.00000E+00  0.00000E+00  0.00000E+00  0.00000E+00  0.00000E+00  0.00000E+00    0.20230E+02  0.19118E+02 -0.39349E+02  0.45313E+01 -0.42301E+01  0.10539E+02      982.00
  0.23528E-01  0.62707E+02    0.12500E-01  0.12500E-01 -0.25000E-01  0.00000E+00  0.00000E+00  0.00000E+00    0.20329E+02  0.19041E+02 -0.39370E+02  0.43937E+01 -0.41856E+01  0.10535E+02      982.00
  0.47072E-01  0.62713E+02    0.25000E-01  0.25000E-01 -0.50000E-01  0.00000E+00  0.00000E+00  0.00000E+00    0.20388E+02  0.19005E+02 -0.39393E+02  0.42713E+01 -0.41313E+01  0.10550E+02      982.00
  0.70628E-01  0.62767E+02    0.37500E-01  0.37500E-01 -0.75000E-01  0.00000E+00  0.00000E+00  0.00000E+00    0.20449E+02  0.18990E+02 -0.39440E+02  0.41634E+01 -0.40772E+01  0.10590E+02      982.00
  0.94191E-01  0.62854E+02    0.50000E-01  0.50000E-01 -0.10000E+00  0.00000E+00  0.00000E+00  0.00000E+00    0.20513E+02  0.18986E+02 -0.39499E+02  0.40674E+01 -0.40236E+01  0.10652E+02      982.00
  0.11776E+00  0.62984E+02    0.62500E-01  0.62500E-01 -0.12500E+00  0.00000E+00  0.00000E+00  0.00000E+00    0.20584E+02  0.18994E+02 -0.39578E+02  0.39842E+01 -0.39746E+01  0.10734E+02      982.00
  0.14132E+00  0.63150E+02    0.75000E-01  0.75000E-01 -0.15000E+00  0.00000E+00  0.00000E+00  0.00000E+00    0.20661E+02  0.19014E+02 -0.39675E+02  0.39124E+01 -0.39303E+01  0.10831E+02      982.00
  0.16488E+00  0.63346E+02    0.87500E-01  0.87500E-01 -0.17500E+00  0.00000E+00  0.00000E+00  0.00000E+00    0.20743E+02  0.19043E+02 -0.39786E+02  0.38522E+01 -0.38926E+01  0.10939E+02      982.00
  0.18843E+00  0.63563E+02    0.10000E+00  0.10000E+00 -0.20000E+00  0.00000E+00  0.00000E+00  0.00000E+00    0.20827E+02  0.19081E+02 -0.39908E+02  0.38016E+01 -0.38614E+01  0.11053E+02      982.00
  0.21198E+00  0.63807E+02    0.11250E+00  0.11250E+00 -0.22500E+00  0.00000E+00  0.00000E+00  0.00000E+00    0.20916E+02  0.19127E+02 -0.40043E+02  0.37621E+01 -0.38369E+01  0.11173E+02      982.00
  0.23551E+00  0.64064E+02    0.12500E+00  0.12500E+00 -0.25000E+00  0.00000E+00  0.00000E+00  0.00000E+00    0.21005E+02  0.19181E+02 -0.40186E+02  0.37308E+01 -0.38198E+01  0.11292E+02      982.00
  0.25903E+00  0.64334E+02    0.13750E+00  0.13750E+00 -0.27500E+00  0.00000E+00  0.00000E+00  0.00000E+00    0.21097E+02  0.19236E+02 -0.40333E+02  0.37013E+01 -0.38025E+01  0.11426E+02      982.00
  0.28254E+00  0.64598E+02    0.15000E+00  0.15000E+00 -0.30000E+00  0.00000E+00  0.00000E+00  0.00000E+00    0.21184E+02  0.19296E+02 -0.40480E+02  0.36853E+01 -0.37954E+01  0.11537E+02      982.00
  0.30604E+00  0.64862E+02    0.16250E+00  0.16250E+00 -0.32500E+00  0.00000E+00  0.00000E+00  0.00000E+00    0.21268E+02  0.19360E+02 -0.40629E+02  0.36748E+01 -0.37937E+01  0.11642E+02      982.00
  0.32953E+00  0.65150E+02    0.17500E+00  0.17500E+00 -0.35000E+00  0.00000E+00  0.00000E+00  0.00000E+00    0.21358E+02  0.19431E+02 -0.40789E+02  0.36647E+01 -0.37907E+01  0.11761E+02      982.00
  0.35301E+00  0.65400E+02    0.18750E+00  0.18750E+00 -0.37500E+00  0.00000E+00  0.00000E+00  0.00000E+00    0.21434E+02  0.19498E+02 -0.40932E+02  0.36627E+01 -0.37947E+01  0.11850E+02      982.00
  0.37648E+00  0.65604E+02    0.20000E+00  0.20000E+00 -0.40000E+00  0.00000E+00  0.00000E+00  0.00000E+00    0.21494E+02  0.19555E+02 -0.41048E+02  0.36629E+01 -0.37994E+01  0.11922E+02      982.00
  0.39994E+00  0.65873E+02    0.21250E+00  0.21250E+00 -0.42500E+00  0.00000E+00  0.00000E+00  0.00000E+00    0.21570E+02  0.19631E+02 -0.41201E+02  0.36666E+01 -0.38078E+01  0.12016E+02      982.00
  0.42340E+00  0.66082E+02    0.22500E+00  0.22500E+00 -0.45000E+00  0.00000E+00  0.00000E+00  0.00000E+00    0.21629E+02  0.19693E+02 -0.41323E+02  0.36699E+01 -0.38134E+01  0.12082E+02      982.00
  0.44685E+00  0.66284E+02    0.23750E+00  0.23750E+00 -0.47500E+00  0.00000E+00  0.00000E+00  0.00000E+00    0.21685E+02  0.19757E+02 -0.41442E+02  0.36747E+01 -0.38198E+01  0.12142E+02      982.00
  0.47030E+00  0.66474E+02    0.25000E+00  0.25000E+00 -0.50000E+00  0.00000E+00  0.00000E+00  0.00000E+00    0.21737E+02  0.19818E+02 -0.41555E+02  0.36803E+01 -0.38263E+01  0.12196E+02      982.00
  0.49374E+00  0.66698E+02    0.26250E+00  0.26250E+00 -0.52500E+00  0.00000E+00  0.00000E+00  0.00000E+00    0.21795E+02  0.19892E+02 -0.41687E+02  0.36850E+01 -0.38320E+01  0.12261E+02      982.00
  0.51718E+00  0.66856E+02    0.27500E+00  0.27500E+00 -0.55000E+00  0.00000E+00  0.00000E+00  0.00000E+00    0.21834E+02  0.19947E+02 -0.41781E+02  0.36918E+01 -0.38382E+01  0.12305E+02      982.00
  0.54061E+00  0.66994E+02    0.28750E+00  0.28750E+00 -0.57500E+00  0.00000E+00  0.00000E+00  0.00000E+00    0.21868E+02  0.19997E+02 -0.41865E+02  0.36978E+01 -0.38424E+01  0.12341E+02      982.00
  0.56404E+00  0.67127E+02    0.30000E+00  0.30000E+00 -0.60000E+00  0.00000E+00  0.00000E+00  0.00000E+00    0.21900E+02  0.20045E+02 -0.41945E+02  0.37034E+01 -0.38457E+01  0.12374E+02      982.00
  0.58748E+00  0.67247E+02    0.31250E+00  0.31250E+00 -0.62500E+00  0.00000E+00  0.00000E+00  0.00000E+00    0.21928E+02  0.20090E+02 -0.42018E+02  0.37096E+01 -0.38489E+01  0.12405E+02      982.00
  0.61091E+00  0.67357E+02    0.32500E+00  0.32500E+00 -0.65000E+00  0.00000E+00  0.00000E+00  0.00000E+00    0.21952E+02  0.20132E+02 -0.42084E+02  0.37140E+01 -0.38510E+01  0.12433E+02      982.00
  0.63434E+00  0.67465E+02    0.33750E+00  0.33750E+00 -0.67500E+00  0.00000E+00  0.00000E+00  0.00000E+00    0.21977E+02  0.20173E+02 -0.42150E+02  0.37199E+01 -0.38539E+01  0.12459E+02      982.00
  0.65777E+00  0.67576E+02    0.35000E+00  0.35000E+00 -0.70000E+00  0.00000E+00  0.00000E+00  0.00000E+00    0.21997E+02  0.20220E+02 -0.42217E+02  0.37240E+01 -0.38535E+01  0.12488E+02      982.00
  0.68119E+00  0.67672E+02    0.36250E+00  0.36250E+00 -0.72500E+00  0.00000E+00  0.00000E+00  0.00000E+00    0.22015E+02  0.20260E+02 -0.42275E+02  0.37310E+01 -0.38555E+01  0.12511E+02      982.00
  0.70462E+00  0.67739E+02    0.37500E+00  0.37500E+00 -0.75000E+00  0.00000E+00  0.00000E+00  0.00000E+00    0.22027E+02  0.20290E+02 -0.42317E+02  0.37370E+01 -0.38570E+01  0.12526E+02      982.00
  0.72805E+00  0.67812E+02    0.38750E+00  0.38750E+00 -0.77500E+00  0.00000E+00  0.00000E+00  0.00000E+00    0.22040E+02  0.20320E+02 -0.42361E+02  0.37415E+01 -0.38586E+01  0.12544E+02      982.00
  0.75147E+00  0.67873E+02    0.40000E+00  0.40000E+00 -0.80000E+00  0.00000E+00  0.00000E+00  0.00000E+00    0.22051E+02  0.20347E+02 -0.42398E+02  0.37474E+01 -0.38602E+01  0.12559E+02      982.00
  0.77490E+00  0.67932E+02    0.41250E+00  0.41250E+00 -0.82500E+00  0.00000E+00  0.00000E+00  0.00000E+00    0.22061E+02  0.20372E+02 -0.42433E+02  0.37523E+01 -0.38609E+01  0.12575E+02      982.00
  0.79832E+00  0.67989E+02    0.42500E+00  0.42500E+00 -0.85000E+00  0.00000E+00  0.00000E+00  0.00000E+00    0.22072E+02  0.20395E+02 -0.42467E+02  0.37585E+01 -0.38628E+01  0.12589E+02      982.00
  0.82174E+00  0.68060E+02    0.43750E+00  0.43750E+00 -0.87500E+00  0.00000E+00  0.00000E+00  0.00000E+00    0.22081E+02  0.20429E+02 -0.42510E+02  0.37622E+01 -0.38599E+01  0.12608E+02      982.00
  0.84517E+00  0.68092E+02    0.45000E+00  0.45000E+00 -0.90000E+00  0.00000E+00  0.00000E+00  0.00000E+00    0.22085E+02  0.20443E+02 -0.42528E+02  0.37711E+01 -0.38651E+01  0.12617E+02      982.00
  0.86859E+00  0.68143E+02    0.46250E+00  0.46250E+00 -0.92500E+00  0.00000E+00  0.00000E+00  0.00000E+00    0.22091E+02  0.20467E+02 -0.42559E+02  0.37753E+01 -0.38642E+01  0.12632E+02      982.00
  0.89201E+00  0.68188E+02    0.47500E+00  0.47500E+00 -0.95000E+00  0.00000E+00  0.00000E+00  0.00000E+00    0.22095E+02  0.20490E+02 -0.42585E+02  0.37826E+01 -0.38659E+01  0.12644E+02      982.00
  0.91543E+00  0.68224E+02    0.48750E+00  0.48750E+00 -0.97500E+00  0.00000E+00  0.00000E+00  0.00000E+00    0.22098E+02  0.20506E+02 -0.42605E+02  0.37911E+01 -0.38685E+01  0.12655E+02      982.00
  0.93885E+00  0.68208E+02    0.50000E+00  0.50000E+00 -0.10000E+01  0.00000E+00  0.00000E+00  0.00000E+00    0.22097E+02  0.20497E+02 -0.42594E+02  0.37840E+01 -0.38609E+01  0.12658E+02      982.00
