          Evm          Svm            E11          E22          E33          E23          E13          E12         SDEV11       SDEV22       SDEV33       SDEV23       SDEV13       SDEV12      TEMP
  0.00000E+00  0.57807E+02    0.00000E+00  0.00000E+00  0.00000E+00  0.00000E+00  0.00000E+00  0.00000E+00    0.23005E+02  0.13021E+02 -0.36026E+02 -0.50900E+00 -0.83722E+01 -0.67230E+01      982.00
  0.23371E-01  0.58055E+02    0.12500E-01  0.12500E-01 -0.25000E-01  0.00000E+00  0.00000E+00  0.00000E+00    0.22643E+02  0.13607E+02 -0.36250E+02 -0.10804E+01 -0.82912E+01 -0.68977E+01      982.00
  0.46786E-01  0.58135E+02    0.25000E-01  0.25000E-01 -0.50000E-01  0.00000E+00  0.00000E+00  0.00000E+00    0.22149E+02  0.14240E+02 -0.36389E+02 -0.16081E+01 -0.81456E+01 -0.69921E+01      982.00
  0.70258E-01  0.58247E+02    0.37500E-01  0.37500E-01 -0.75000E-01  0.00000E+00  0.00000E+00  0.00000E+00    0.21756E+02  0.14758E+02 -0.36515E+02 -0.19296E+01 -0.80887E+01 -0.70376E+01      982.00
  0.93767E-01  0.58435E+02    0.50000E-01  0.50000E-01 -0.10000E+00  0.00000E+00  0.00000E+00  0.00000E+00    0.21528E+02  0.15135E+02 -0.36663E+02 -0.20647E+01 -0.81157E+01 -0.70545E+01      982.00
  0.11729E+00  0.58672E+02    0.62500E-01  0.62500E-01 -0.12500E+00  0.00000E+00  0.00000E+00  0.00000E+00    0.21427E+02  0.15402E+02 -0.36829E+02 -0.20998E+01 -0.81742E+01 -0.70610E+01      982.00
  0.14083E+00  0.58938E+02    0.75000E-01  0.75000E-01 -0.15000E+00  0.00000E+00  0.00000E+00  0.00000E+00    0.21428E+02  0.15580E+02 -0.37008E+02 -0.20831E+01 -0.82393E+01 -0.70653E+01      982.00
  0.16438E+00  0.59262E+02    0.87500E-01  0.87500E-01 -0.17500E+00  0.00000E+00  0.00000E+00  0.00000E+00    0.21544E+02  0.15683E+02 -0.37227E+02 -0.20310E+01 -0.82884E+01 -0.70601E+01      982.00
  0.18794E+00  0.59633E+02    0.10000E+00  0.10000E+00 -0.20000E+00  0.00000E+00  0.00000E+00  0.00000E+00    0.21689E+02  0.15782E+02 -0.37471E+02 -0.20053E+01 -0.83327E+01 -0.70793E+01      982.00
  0.21150E+00  0.59994E+02    0.11250E+00  0.11250E+00 -0.22500E+00  0.00000E+00  0.00000E+00  0.00000E+00    0.21869E+02  0.15841E+02 -0.37711E+02 -0.19825E+01 -0.83557E+01 -0.70972E+01      982.00
  0.23507E+00  0.60402E+02    0.12500E+00  0.12500E+00 -0.25000E+00  0.00000E+00  0.00000E+00  0.00000E+00    0.22089E+02  0.15891E+02 -0.37980E+02 -0.19715E+01 -0.83690E+01 -0.71226E+01      982.00
  0.25865E+00  0.60807E+02    0.13750E+00  0.13750E+00 -0.27500E+00  0.00000E+00  0.00000E+00  0.00000E+00    0.22321E+02  0.15928E+02 -0.38249E+02 -0.19730E+01 -0.83674E+01 -0.71500E+01      982.00
  0.28224E+00  0.61221E+02    0.15000E+00  0.15000E+00 -0.30000E+00  0.00000E+00  0.00000E+00  0.00000E+00    0.22568E+02  0.15957E+02 -0.38526E+02 -0.19816E+01 -0.83560E+01 -0.71751E+01      982.00
  0.30584E+00  0.61641E+02    0.16250E+00  0.16250E+00 -0.32500E+00  0.00000E+00  0.00000E+00  0.00000E+00    0.22815E+02  0.15992E+02 -0.38807E+02 -0.20067E+01 -0.83359E+01 -0.72029E+01      982.00
  0.32945E+00  0.62046E+02    0.17500E+00  0.17500E+00 -0.35000E+00  0.00000E+00  0.00000E+00  0.00000E+00    0.23059E+02  0.16022E+02 -0.39081E+02 -0.20377E+01 -0.83065E+01 -0.72260E+01      982.00
  0.35307E+00  0.62445E+02    0.18750E+00  0.18750E+00 -0.37500E+00  0.00000E+00  0.00000E+00  0.00000E+00    0.23298E+02  0.16056E+02 -0.39353E+02 -0.20793E+01 -0.82683E+01 -0.72455E+01      982.00
  0.37670E+00  0.62840E+02    0.20000E+00  0.20000E+00 -0.40000E+00  0.00000E+00  0.00000E+00  0.00000E+00    0.23528E+02  0.16096E+02 -0.39624E+02 -0.21309E+01 -0.82229E+01 -0.72626E+01      982.00
  0.40035E+00  0.63242E+02    0.21250E+00  0.21250E+00 -0.42500E+00  0.00000E+00  0.00000E+00  0.00000E+00    0.23766E+02  0.16139E+02 -0.39906E+02 -0.21987E+01 -0.81596E+01 -0.72704E+01      982.00
  0.42401E+00  0.63596E+02    0.22500E+00  0.22500E+00 -0.45000E+00  0.00000E+00  0.00000E+00  0.00000E+00    0.23957E+02  0.16201E+02 -0.40158E+02 -0.22652E+01 -0.80944E+01 -0.72759E+01      982.00
  0.44769E+00  0.63935E+02    0.23750E+00  0.23750E+00 -0.47500E+00  0.00000E+00  0.00000E+00  0.00000E+00    0.24133E+02  0.16270E+02 -0.40403E+02 -0.23359E+01 -0.80222E+01 -0.72774E+01      982.00
  0.47139E+00  0.64250E+02    0.25000E+00  0.25000E+00 -0.50000E+00  0.00000E+00  0.00000E+00  0.00000E+00    0.24285E+02  0.16346E+02 -0.40631E+02 -0.23909E+01 -0.79626E+01 -0.72815E+01      982.00
  0.49510E+00  0.64555E+02    0.26250E+00  0.26250E+00 -0.52500E+00  0.00000E+00  0.00000E+00  0.00000E+00    0.24448E+02  0.16406E+02 -0.40854E+02 -0.24534E+01 -0.78892E+01 -0.72745E+01      982.00
  0.51883E+00  0.64851E+02    0.27500E+00  0.27500E+00 -0.55000E+00  0.00000E+00  0.00000E+00  0.00000E+00    0.24608E+02  0.16464E+02 -0.41072E+02 -0.25168E+01 -0.78118E+01 -0.72625E+01      982.00
  0.54258E+00  0.65124E+02    0.28750E+00  0.28750E+00 -0.57500E+00  0.00000E+00  0.00000E+00  0.00000E+00    0.24753E+02  0.16525E+02 -0.41278E+02 -0.25800E+01 -0.77280E+01 -0.72461E+01      982.00
  0.56635E+00  0.65386E+02    0.30000E+00  0.30000E+00 -0.60000E+00  0.00000E+00  0.00000E+00  0.00000E+00    0.24898E+02  0.16576E+02 -0.41474E+02 -0.26437E+01 -0.76482E+01 -0.72270E+01      982.00
  0.59014E+00  0.65617E+02    0.31250E+00  0.31250E+00 -0.62500E+00  0.00000E+00  0.00000E+00  0.00000E+00    0.25023E+02  0.16629E+02 -0.41652E+02 -0.27056E+01 -0.75621E+01 -0.72043E+01      982.00
  0.61394E+00  0.65840E+02    0.32500E+00  0.32500E+00 -0.65000E+00  0.00000E+00  0.00000E+00  0.00000E+00    0.25143E+02  0.16682E+02 -0.41826E+02 -0.27661E+01 -0.74736E+01 -0.71795E+01      982.00
  0.63777E+00  0.66043E+02    0.33750E+00  0.33750E+00 -0.67500E+00  0.00000E+00  0.00000E+00  0.00000E+00    0.25256E+02  0.16729E+02 -0.41985E+02 -0.28243E+01 -0.73851E+01 -0.71525E+01      982.00
  0.66160E+00  0.66247E+02    0.35000E+00  0.35000E+00 -0.70000E+00  0.00000E+00  0.00000E+00  0.00000E+00    0.25369E+02  0.16776E+02 -0.42145E+02 -0.28805E+01 -0.72968E+01 -0.71233E+01      982.00
  0.68546E+00  0.66423E+02    0.36250E+00  0.36250E+00 -0.72500E+00  0.00000E+00  0.00000E+00  0.00000E+00    0.25471E+02  0.16815E+02 -0.42286E+02 -0.29343E+01 -0.72077E+01 -0.70918E+01      982.00
  0.70933E+00  0.66597E+02    0.37500E+00  0.37500E+00 -0.75000E+00  0.00000E+00  0.00000E+00  0.00000E+00    0.25573E+02  0.16852E+02 -0.42425E+02 -0.29855E+01 -0.71198E+01 -0.70585E+01      982.00
  0.73322E+00  0.66757E+02    0.38750E+00  0.38750E+00 -0.77500E+00  0.00000E+00  0.00000E+00  0.00000E+00    0.25670E+02  0.16886E+02 -0.42555E+02 -0.30362E+01 -0.70316E+01 -0.70237E+01      982.00
  0.75713E+00  0.66901E+02    0.40000E+00  0.40000E+00 -0.80000E+00  0.00000E+00  0.00000E+00  0.00000E+00    0.25762E+02  0.16912E+02 -0.42673E+02 -0.30834E+01 -0.69449E+01 -0.69874E+01      982.00
  0.78105E+00  0.67048E+02    0.41250E+00  0.41250E+00 -0.82500E+00  0.00000E+00  0.00000E+00  0.00000E+00    0.25855E+02  0.16938E+02 -0.42793E+02 -0.31292E+01 -0.68583E+01 -0.69511E+01      982.00
  0.80498E+00  0.67183E+02    0.42500E+00  0.42500E+00 -0.85000E+00  0.00000E+00  0.00000E+00  0.00000E+00    0.25946E+02  0.16958E+02 -0.42904E+02 -0.31724E+01 -0.67735E+01 -0.69117E+01      982.00
  0.82893E+00  0.67306E+02    0.43750E+00  0.43750E+00 -0.87500E+00  0.00000E+00  0.00000E+00  0.00000E+00    0.26039E+02  0.16967E+02 -0.43006E+02 -0.32103E+01 -0.66928E+01 -0.68711E+01      982.00
  0.85289E+00  0.67414E+02    0.45000E+00  0.45000E+00 -0.90000E+00  0.00000E+00  0.00000E+00  0.00000E+00    0.26121E+02  0.16977E+02 -0.43098E+02 -0.32492E+01 -0.66097E+01 -0.68295E+01      982.00
  0.87687E+00  0.67454E+02    0.46250E+00  0.46250E+00 -0.92500E+00  0.00000E+00  0.00000E+00  0.00000E+00    0.26164E+02  0.16990E+02 -0.43154E+02 -0.32771E+01 -0.65009E+01 -0.67773E+01      982.00
  0.90086E+00  0.67491E+02    0.47500E+00  0.47500E+00 -0.95000E+00  0.00000E+00  0.00000E+00  0.00000E+00    0.26208E+02  0.16998E+02 -0.43206E+02 -0.33028E+01 -0.63952E+01 -0.67269E+01      982.00
  0.92486E+00  0.67525E+02    0.48750E+00  0.48750E+00 -0.97500E+00  0.00000E+00  0.00000E+00  0.00000E+00    0.26250E+02  0.17006E+02 -0.43256E+02 -0.33285E+01 -0.62899E+01 -0.66761E+01      982.00
  0.94889E+00  0.67557E+02    0.50000E+00  0.50000E+00 -0.10000E+01  0.00000E+00  0.00000E+00  0.00000E+00    0.26293E+02  0.17009E+02 -0.43302E+02 -0.33525E+01 -0.61900E+01 -0.66268E+01      982.00
