          Evm          Svm            E11          E22          E33          E23          E13          E12         SDEV11       SDEV22       SDEV33       SDEV23       SDEV13       SDEV12      TEMP
  0.00000E+00  0.62620E+02    0.00000E+00  0.00000E+00  0.00000E+00  0.00000E+00  0.00000E+00  0.00000E+00    0.20820E+02  0.20288E+02 -0.41108E+02  0.17424E+01 -0.47404E+00  0.60270E+01      982.00
  0.24618E-01  0.62806E+02    0.12500E-01  0.12500E-01 -0.25000E-01  0.00000E+00  0.00000E+00  0.00000E+00    0.21808E+02  0.19367E+02 -0.41175E+02  0.16151E+01 -0.36121E+00  0.62525E+01      982.00
  0.49203E-01  0.62946E+02    0.25000E-01  0.25000E-01 -0.50000E-01  0.00000E+00  0.00000E+00  0.00000E+00    0.22557E+02  0.18651E+02 -0.41208E+02  0.14762E+01 -0.40173E+00  0.64043E+01      982.00
  0.73752E-01  0.63072E+02    0.37500E-01  0.37500E-01 -0.75000E-01  0.00000E+00  0.00000E+00  0.00000E+00    0.23138E+02  0.18092E+02 -0.41230E+02  0.13532E+01 -0.51410E+00  0.65293E+01      982.00
  0.98266E-01  0.63206E+02    0.50000E-01  0.50000E-01 -0.10000E+00  0.00000E+00  0.00000E+00  0.00000E+00    0.23609E+02  0.17647E+02 -0.41256E+02  0.12553E+01 -0.65395E+00  0.66524E+01      982.00
  0.12274E+00  0.63363E+02    0.62500E-01  0.62500E-01 -0.12500E+00  0.00000E+00  0.00000E+00  0.00000E+00    0.24007E+02  0.17287E+02 -0.41294E+02  0.11830E+01 -0.79997E+00  0.67844E+01      982.00
  0.14718E+00  0.63549E+02    0.75000E-01  0.75000E-01 -0.15000E+00  0.00000E+00  0.00000E+00  0.00000E+00    0.24360E+02  0.16991E+02 -0.41351E+02  0.11338E+01 -0.94294E+00  0.69289E+01      982.00
  0.17158E+00  0.63766E+02    0.87500E-01  0.87500E-01 -0.17500E+00  0.00000E+00  0.00000E+00  0.00000E+00    0.24682E+02  0.16743E+02 -0.41425E+02  0.11043E+01 -0.10796E+01  0.70855E+01      982.00
  0.19594E+00  0.64011E+02    0.10000E+00  0.10000E+00 -0.20000E+00  0.00000E+00  0.00000E+00  0.00000E+00    0.24978E+02  0.16539E+02 -0.41517E+02  0.10901E+01 -0.12112E+01  0.72537E+01      982.00
  0.22027E+00  0.64281E+02    0.11250E+00  0.11250E+00 -0.22500E+00  0.00000E+00  0.00000E+00  0.00000E+00    0.25263E+02  0.16361E+02 -0.41623E+02  0.10908E+01 -0.13346E+01  0.74280E+01      982.00
  0.24455E+00  0.64566E+02    0.12500E+00  0.12500E+00 -0.25000E+00  0.00000E+00  0.00000E+00  0.00000E+00    0.25527E+02  0.16213E+02 -0.41740E+02  0.11016E+01 -0.14540E+01  0.76093E+01      982.00
  0.26879E+00  0.64863E+02    0.13750E+00  0.13750E+00 -0.27500E+00  0.00000E+00  0.00000E+00  0.00000E+00    0.25782E+02  0.16082E+02 -0.41864E+02  0.11234E+01 -0.15668E+01  0.77910E+01      982.00
  0.29299E+00  0.65164E+02    0.15000E+00  0.15000E+00 -0.30000E+00  0.00000E+00  0.00000E+00  0.00000E+00    0.26019E+02  0.15973E+02 -0.41992E+02  0.11539E+01 -0.16770E+01  0.79732E+01      982.00
  0.31716E+00  0.65463E+02    0.16250E+00  0.16250E+00 -0.32500E+00  0.00000E+00  0.00000E+00  0.00000E+00    0.26232E+02  0.15888E+02 -0.42120E+02  0.11904E+01 -0.17836E+01  0.81578E+01      982.00
  0.34129E+00  0.65748E+02    0.17500E+00  0.17500E+00 -0.35000E+00  0.00000E+00  0.00000E+00  0.00000E+00    0.26428E+02  0.15813E+02 -0.42241E+02  0.12332E+01 -0.18826E+01  0.83362E+01      982.00
  0.36538E+00  0.66020E+02    0.18750E+00  0.18750E+00 -0.37500E+00  0.00000E+00  0.00000E+00  0.00000E+00    0.26599E+02  0.15756E+02 -0.42355E+02  0.12806E+01 -0.19757E+01  0.85123E+01      982.00
  0.38944E+00  0.66276E+02    0.20000E+00  0.20000E+00 -0.40000E+00  0.00000E+00  0.00000E+00  0.00000E+00    0.26743E+02  0.15720E+02 -0.42463E+02  0.13321E+01 -0.20633E+01  0.86875E+01      982.00
  0.41346E+00  0.66550E+02    0.21250E+00  0.21250E+00 -0.42500E+00  0.00000E+00  0.00000E+00  0.00000E+00    0.26875E+02  0.15701E+02 -0.42576E+02  0.13943E+01 -0.21523E+01  0.88843E+01      982.00
  0.43746E+00  0.66772E+02    0.22500E+00  0.22500E+00 -0.45000E+00  0.00000E+00  0.00000E+00  0.00000E+00    0.26951E+02  0.15718E+02 -0.42670E+02  0.14600E+01 -0.22398E+01  0.90524E+01      982.00
  0.46142E+00  0.66974E+02    0.23750E+00  0.23750E+00 -0.47500E+00  0.00000E+00  0.00000E+00  0.00000E+00    0.26997E+02  0.15757E+02 -0.42754E+02  0.15297E+01 -0.23230E+01  0.92172E+01      982.00
  0.48536E+00  0.67146E+02    0.25000E+00  0.25000E+00 -0.50000E+00  0.00000E+00  0.00000E+00  0.00000E+00    0.27024E+02  0.15799E+02 -0.42823E+02  0.16003E+01 -0.23998E+01  0.93632E+01      982.00
  0.50927E+00  0.67322E+02    0.26250E+00  0.26250E+00 -0.52500E+00  0.00000E+00  0.00000E+00  0.00000E+00    0.27042E+02  0.15851E+02 -0.42892E+02  0.16801E+01 -0.24729E+01  0.95244E+01      982.00
  0.53317E+00  0.67475E+02    0.27500E+00  0.27500E+00 -0.55000E+00  0.00000E+00  0.00000E+00  0.00000E+00    0.27030E+02  0.15921E+02 -0.42951E+02  0.17592E+01 -0.25367E+01  0.96784E+01      982.00
  0.55704E+00  0.67617E+02    0.28750E+00  0.28750E+00 -0.57500E+00  0.00000E+00  0.00000E+00  0.00000E+00    0.27009E+02  0.15994E+02 -0.43003E+02  0.18427E+01 -0.25969E+01  0.98292E+01      982.00
  0.58089E+00  0.67739E+02    0.30000E+00  0.30000E+00 -0.60000E+00  0.00000E+00  0.00000E+00  0.00000E+00    0.26962E+02  0.16085E+02 -0.43047E+02  0.19242E+01 -0.26507E+01  0.99727E+01      982.00
  0.60472E+00  0.67847E+02    0.31250E+00  0.31250E+00 -0.62500E+00  0.00000E+00  0.00000E+00  0.00000E+00    0.26899E+02  0.16185E+02 -0.43084E+02  0.20059E+01 -0.27005E+01  0.10111E+02      982.00
  0.62853E+00  0.67943E+02    0.32500E+00  0.32500E+00 -0.65000E+00  0.00000E+00  0.00000E+00  0.00000E+00    0.26824E+02  0.16291E+02 -0.43116E+02  0.20871E+01 -0.27465E+01  0.10243E+02      982.00
  0.65233E+00  0.68029E+02    0.33750E+00  0.33750E+00 -0.67500E+00  0.00000E+00  0.00000E+00  0.00000E+00    0.26740E+02  0.16402E+02 -0.43142E+02  0.21671E+01 -0.27892E+01  0.10369E+02      982.00
  0.67611E+00  0.68105E+02    0.35000E+00  0.35000E+00 -0.70000E+00  0.00000E+00  0.00000E+00  0.00000E+00    0.26648E+02  0.16516E+02 -0.43164E+02  0.22457E+01 -0.28291E+01  0.10490E+02      982.00
  0.69987E+00  0.68170E+02    0.36250E+00  0.36250E+00 -0.72500E+00  0.00000E+00  0.00000E+00  0.00000E+00    0.26540E+02  0.16642E+02 -0.43182E+02  0.23212E+01 -0.28654E+01  0.10604E+02      982.00
  0.72363E+00  0.68231E+02    0.37500E+00  0.37500E+00 -0.75000E+00  0.00000E+00  0.00000E+00  0.00000E+00    0.26440E+02  0.16757E+02 -0.43197E+02  0.23962E+01 -0.29007E+01  0.10713E+02      982.00
  0.74737E+00  0.68286E+02    0.38750E+00  0.38750E+00 -0.77500E+00  0.00000E+00  0.00000E+00  0.00000E+00    0.26339E+02  0.16870E+02 -0.43208E+02  0.24689E+01 -0.29340E+01  0.10815E+02      982.00
  0.77110E+00  0.68335E+02    0.40000E+00  0.40000E+00 -0.80000E+00  0.00000E+00  0.00000E+00  0.00000E+00    0.26236E+02  0.16981E+02 -0.43217E+02  0.25394E+01 -0.29657E+01  0.10912E+02      982.00
  0.79481E+00  0.68376E+02    0.41250E+00  0.41250E+00 -0.82500E+00  0.00000E+00  0.00000E+00  0.00000E+00    0.26122E+02  0.17102E+02 -0.43224E+02  0.26085E+01 -0.29946E+01  0.11002E+02      982.00
  0.81852E+00  0.68415E+02    0.42500E+00  0.42500E+00 -0.85000E+00  0.00000E+00  0.00000E+00  0.00000E+00    0.26022E+02  0.17206E+02 -0.43228E+02  0.26747E+01 -0.30235E+01  0.11088E+02      982.00
  0.84222E+00  0.68450E+02    0.43750E+00  0.43750E+00 -0.87500E+00  0.00000E+00  0.00000E+00  0.00000E+00    0.25925E+02  0.17306E+02 -0.43231E+02  0.27386E+01 -0.30512E+01  0.11169E+02      982.00
  0.86590E+00  0.68482E+02    0.45000E+00  0.45000E+00 -0.90000E+00  0.00000E+00  0.00000E+00  0.00000E+00    0.25830E+02  0.17402E+02 -0.43231E+02  0.28003E+01 -0.30778E+01  0.11246E+02      982.00
  0.88957E+00  0.68507E+02    0.46250E+00  0.46250E+00 -0.92500E+00  0.00000E+00  0.00000E+00  0.00000E+00    0.25722E+02  0.17508E+02 -0.43231E+02  0.28654E+01 -0.31035E+01  0.11315E+02      982.00
  0.91324E+00  0.68533E+02    0.47500E+00  0.47500E+00 -0.95000E+00  0.00000E+00  0.00000E+00  0.00000E+00    0.25634E+02  0.17595E+02 -0.43229E+02  0.29234E+01 -0.31280E+01  0.11383E+02      982.00
  0.93689E+00  0.68514E+02    0.48750E+00  0.48750E+00 -0.97500E+00  0.00000E+00  0.00000E+00  0.00000E+00    0.25534E+02  0.17666E+02 -0.43200E+02  0.29698E+01 -0.31419E+01  0.11439E+02      982.00
  0.96053E+00  0.68497E+02    0.50000E+00  0.50000E+00 -0.10000E+01  0.00000E+00  0.00000E+00  0.00000E+00    0.25448E+02  0.17726E+02 -0.43175E+02  0.30115E+01 -0.31557E+01  0.11488E+02      982.00
