          Evm          Svm            E11          E22          E33          E23          E13          E12         SDEV11       SDEV22       SDEV33       SDEV23       SDEV13       SDEV12      TEMP
  0.00000E+00  0.55163E+02    0.00000E+00  0.00000E+00  0.00000E+00  0.00000E+00  0.00000E+00  0.00000E+00    0.18651E+02  0.14259E+02 -0.32910E+02 -0.14094E+01  0.50449E+01  0.13030E+02      982.00
  0.22372E-01  0.55063E+02    0.12500E-01  0.12500E-01 -0.25000E-01  0.00000E+00  0.00000E+00  0.00000E+00    0.18510E+02  0.14402E+02 -0.32912E+02 -0.16011E+01  0.47066E+01  0.13012E+02      982.00
  0.44786E-01  0.55050E+02    0.25000E-01  0.25000E-01 -0.50000E-01  0.00000E+00  0.00000E+00  0.00000E+00    0.18405E+02  0.14535E+02 -0.32940E+02 -0.17487E+01  0.44193E+01  0.13040E+02      982.00
  0.67225E-01  0.55169E+02    0.37500E-01  0.37500E-01 -0.75000E-01  0.00000E+00  0.00000E+00  0.00000E+00    0.18352E+02  0.14665E+02 -0.33017E+02 -0.18654E+01  0.41689E+01  0.13141E+02      982.00
  0.89668E-01  0.55422E+02    0.50000E-01  0.50000E-01 -0.10000E+00  0.00000E+00  0.00000E+00  0.00000E+00    0.18362E+02  0.14785E+02 -0.33147E+02 -0.19596E+01  0.39558E+01  0.13309E+02      982.00
  0.11210E+00  0.55792E+02    0.62500E-01  0.62500E-01 -0.12500E+00  0.00000E+00  0.00000E+00  0.00000E+00    0.18426E+02  0.14900E+02 -0.33326E+02 -0.20370E+01  0.37744E+01  0.13532E+02      982.00
  0.13450E+00  0.56236E+02    0.75000E-01  0.75000E-01 -0.15000E+00  0.00000E+00  0.00000E+00  0.00000E+00    0.18524E+02  0.15013E+02 -0.33536E+02 -0.21015E+01  0.36156E+01  0.13786E+02      982.00
  0.15686E+00  0.56728E+02    0.87500E-01  0.87500E-01 -0.17500E+00  0.00000E+00  0.00000E+00  0.00000E+00    0.18646E+02  0.15121E+02 -0.33767E+02 -0.21520E+01  0.34860E+01  0.14058E+02      982.00
  0.17918E+00  0.57236E+02    0.10000E+00  0.10000E+00 -0.20000E+00  0.00000E+00  0.00000E+00  0.00000E+00    0.18774E+02  0.15231E+02 -0.34005E+02 -0.21954E+01  0.33659E+01  0.14334E+02      982.00
  0.20146E+00  0.57771E+02    0.11250E+00  0.11250E+00 -0.22500E+00  0.00000E+00  0.00000E+00  0.00000E+00    0.18909E+02  0.15344E+02 -0.34253E+02 -0.22266E+01  0.32785E+01  0.14617E+02      982.00
  0.22369E+00  0.58305E+02    0.12500E+00  0.12500E+00 -0.25000E+00  0.00000E+00  0.00000E+00  0.00000E+00    0.19040E+02  0.15462E+02 -0.34502E+02 -0.22498E+01  0.32084E+01  0.14894E+02      982.00
  0.24588E+00  0.58827E+02    0.13750E+00  0.13750E+00 -0.27500E+00  0.00000E+00  0.00000E+00  0.00000E+00    0.19161E+02  0.15584E+02 -0.34745E+02 -0.22665E+01  0.31517E+01  0.15162E+02      982.00
  0.26803E+00  0.59331E+02    0.15000E+00  0.15000E+00 -0.30000E+00  0.00000E+00  0.00000E+00  0.00000E+00    0.19270E+02  0.15709E+02 -0.34980E+02 -0.22782E+01  0.31049E+01  0.15418E+02      982.00
  0.29014E+00  0.59811E+02    0.16250E+00  0.16250E+00 -0.32500E+00  0.00000E+00  0.00000E+00  0.00000E+00    0.19365E+02  0.15838E+02 -0.35204E+02 -0.22866E+01  0.30647E+01  0.15660E+02      982.00
  0.31221E+00  0.60265E+02    0.17500E+00  0.17500E+00 -0.35000E+00  0.00000E+00  0.00000E+00  0.00000E+00    0.19445E+02  0.15971E+02 -0.35415E+02 -0.22933E+01  0.30278E+01  0.15890E+02      982.00
  0.33425E+00  0.60690E+02    0.18750E+00  0.18750E+00 -0.37500E+00  0.00000E+00  0.00000E+00  0.00000E+00    0.19508E+02  0.16106E+02 -0.35614E+02 -0.23000E+01  0.29915E+01  0.16105E+02      982.00
  0.35626E+00  0.61088E+02    0.20000E+00  0.20000E+00 -0.40000E+00  0.00000E+00  0.00000E+00  0.00000E+00    0.19556E+02  0.16243E+02 -0.35799E+02 -0.23080E+01  0.29533E+01  0.16308E+02      982.00
  0.37823E+00  0.61458E+02    0.21250E+00  0.21250E+00 -0.42500E+00  0.00000E+00  0.00000E+00  0.00000E+00    0.19589E+02  0.16381E+02 -0.35970E+02 -0.23183E+01  0.29116E+01  0.16498E+02      982.00
  0.40018E+00  0.61801E+02    0.22500E+00  0.22500E+00 -0.45000E+00  0.00000E+00  0.00000E+00  0.00000E+00    0.19608E+02  0.16521E+02 -0.36130E+02 -0.23313E+01  0.28654E+01  0.16676E+02      982.00
  0.42210E+00  0.62118E+02    0.23750E+00  0.23750E+00 -0.47500E+00  0.00000E+00  0.00000E+00  0.00000E+00    0.19616E+02  0.16661E+02 -0.36277E+02 -0.23470E+01  0.28143E+01  0.16841E+02      982.00
  0.44400E+00  0.62422E+02    0.25000E+00  0.25000E+00 -0.50000E+00  0.00000E+00  0.00000E+00  0.00000E+00    0.19621E+02  0.16796E+02 -0.36417E+02 -0.23615E+01  0.27651E+01  0.16999E+02      982.00
  0.46588E+00  0.62682E+02    0.26250E+00  0.26250E+00 -0.52500E+00  0.00000E+00  0.00000E+00  0.00000E+00    0.19601E+02  0.16938E+02 -0.36539E+02 -0.23835E+01  0.27005E+01  0.17135E+02      982.00
  0.48774E+00  0.62945E+02    0.27500E+00  0.27500E+00 -0.55000E+00  0.00000E+00  0.00000E+00  0.00000E+00    0.19589E+02  0.17075E+02 -0.36664E+02 -0.24007E+01  0.26434E+01  0.17267E+02      982.00
  0.50958E+00  0.63175E+02    0.28750E+00  0.28750E+00 -0.57500E+00  0.00000E+00  0.00000E+00  0.00000E+00    0.19567E+02  0.17206E+02 -0.36773E+02 -0.24184E+01  0.25829E+01  0.17385E+02      982.00
  0.53141E+00  0.63387E+02    0.30000E+00  0.30000E+00 -0.60000E+00  0.00000E+00  0.00000E+00  0.00000E+00    0.19542E+02  0.17332E+02 -0.36875E+02 -0.24340E+01  0.25233E+01  0.17492E+02      982.00
  0.55323E+00  0.63583E+02    0.31250E+00  0.31250E+00 -0.62500E+00  0.00000E+00  0.00000E+00  0.00000E+00    0.19516E+02  0.17454E+02 -0.36970E+02 -0.24465E+01  0.24660E+01  0.17589E+02      982.00
  0.57503E+00  0.63747E+02    0.32500E+00  0.32500E+00 -0.65000E+00  0.00000E+00  0.00000E+00  0.00000E+00    0.19480E+02  0.17573E+02 -0.37053E+02 -0.24589E+01  0.24036E+01  0.17668E+02      982.00
  0.59683E+00  0.63917E+02    0.33750E+00  0.33750E+00 -0.67500E+00  0.00000E+00  0.00000E+00  0.00000E+00    0.19456E+02  0.17683E+02 -0.37138E+02 -0.24645E+01  0.23529E+01  0.17747E+02      982.00
  0.61862E+00  0.64073E+02    0.35000E+00  0.35000E+00 -0.70000E+00  0.00000E+00  0.00000E+00  0.00000E+00    0.19433E+02  0.17786E+02 -0.37219E+02 -0.24662E+01  0.23065E+01  0.17816E+02      982.00
  0.64040E+00  0.64217E+02    0.36250E+00  0.36250E+00 -0.72500E+00  0.00000E+00  0.00000E+00  0.00000E+00    0.19413E+02  0.17882E+02 -0.37295E+02 -0.24645E+01  0.22639E+01  0.17878E+02      982.00
  0.66218E+00  0.64336E+02    0.37500E+00  0.37500E+00 -0.75000E+00  0.00000E+00  0.00000E+00  0.00000E+00    0.19384E+02  0.17975E+02 -0.37359E+02 -0.24616E+01  0.22162E+01  0.17929E+02      982.00
  0.68395E+00  0.64461E+02    0.38750E+00  0.38750E+00 -0.77500E+00  0.00000E+00  0.00000E+00  0.00000E+00    0.19369E+02  0.18059E+02 -0.37428E+02 -0.24544E+01  0.21805E+01  0.17979E+02      982.00
  0.70573E+00  0.64577E+02    0.40000E+00  0.40000E+00 -0.80000E+00  0.00000E+00  0.00000E+00  0.00000E+00    0.19356E+02  0.18137E+02 -0.37493E+02 -0.24446E+01  0.21488E+01  0.18022E+02      982.00
  0.72750E+00  0.64683E+02    0.41250E+00  0.41250E+00 -0.82500E+00  0.00000E+00  0.00000E+00  0.00000E+00    0.19346E+02  0.18208E+02 -0.37554E+02 -0.24332E+01  0.21199E+01  0.18060E+02      982.00
  0.74927E+00  0.64775E+02    0.42500E+00  0.42500E+00 -0.85000E+00  0.00000E+00  0.00000E+00  0.00000E+00    0.19328E+02  0.18279E+02 -0.37607E+02 -0.24188E+01  0.20846E+01  0.18094E+02      982.00
  0.77104E+00  0.64867E+02    0.43750E+00  0.43750E+00 -0.87500E+00  0.00000E+00  0.00000E+00  0.00000E+00    0.19323E+02  0.18339E+02 -0.37662E+02 -0.24052E+01  0.20598E+01  0.18124E+02      982.00
  0.79282E+00  0.64952E+02    0.45000E+00  0.45000E+00 -0.90000E+00  0.00000E+00  0.00000E+00  0.00000E+00    0.19320E+02  0.18394E+02 -0.37714E+02 -0.23906E+01  0.20381E+01  0.18150E+02      982.00
  0.81459E+00  0.65031E+02    0.46250E+00  0.46250E+00 -0.92500E+00  0.00000E+00  0.00000E+00  0.00000E+00    0.19319E+02  0.18444E+02 -0.37763E+02 -0.23757E+01  0.20183E+01  0.18172E+02      982.00
  0.83637E+00  0.65104E+02    0.47500E+00  0.47500E+00 -0.95000E+00  0.00000E+00  0.00000E+00  0.00000E+00    0.19319E+02  0.18490E+02 -0.37809E+02 -0.23608E+01  0.19999E+01  0.18192E+02      982.00
  0.85815E+00  0.65172E+02    0.48750E+00  0.48750E+00 -0.97500E+00  0.00000E+00  0.00000E+00  0.00000E+00    0.19322E+02  0.18531E+02 -0.37853E+02 -0.23460E+01  0.19828E+01  0.18209E+02      982.00
  0.87993E+00  0.65190E+02    0.50000E+00  0.50000E+00 -0.10000E+01  0.00000E+00  0.00000E+00  0.00000E+00    0.19318E+02  0.18551E+02 -0.37869E+02 -0.23225E+01  0.19650E+01  0.18210E+02      982.00
