          Evm          Svm            E11          E22          E33          E23          E13          E12         SDEV11       SDEV22       SDEV33       SDEV23       SDEV13       SDEV12      TEMP
  0.00000E+00  0.58616E+02    0.00000E+00  0.00000E+00  0.00000E+00  0.00000E+00  0.00000E+00  0.00000E+00    0.24269E+02  0.10531E+02 -0.34799E+02  0.44672E+01 -0.16139E+01  0.12934E+02      982.00
  0.22263E-01  0.59011E+02    0.12500E-01  0.12500E-01 -0.25000E-01  0.00000E+00  0.00000E+00  0.00000E+00    0.24546E+02  0.10531E+02 -0.35078E+02  0.49059E+01 -0.19807E+01  0.12681E+02      982.00
  0.44554E-01  0.59399E+02    0.25000E-01  0.25000E-01 -0.50000E-01  0.00000E+00  0.00000E+00  0.00000E+00    0.24836E+02  0.10532E+02 -0.35368E+02  0.52923E+01 -0.23360E+01  0.12381E+02      982.00
  0.66883E-01  0.59729E+02    0.37500E-01  0.37500E-01 -0.75000E-01  0.00000E+00  0.00000E+00  0.00000E+00    0.25127E+02  0.10516E+02 -0.35643E+02  0.56112E+01 -0.26795E+01  0.12015E+02      982.00
  0.89261E-01  0.60002E+02    0.50000E-01  0.50000E-01 -0.10000E+00  0.00000E+00  0.00000E+00  0.00000E+00    0.25408E+02  0.10489E+02 -0.35897E+02  0.58239E+01 -0.29912E+01  0.11623E+02      982.00
  0.11170E+00  0.60254E+02    0.62500E-01  0.62500E-01 -0.12500E+00  0.00000E+00  0.00000E+00  0.00000E+00    0.25692E+02  0.10452E+02 -0.36144E+02  0.59230E+01 -0.32611E+01  0.11252E+02      982.00
  0.13419E+00  0.60528E+02    0.75000E-01  0.75000E-01 -0.15000E+00  0.00000E+00  0.00000E+00  0.00000E+00    0.25992E+02  0.10409E+02 -0.36401E+02  0.59281E+01 -0.34857E+01  0.10929E+02      982.00
  0.15674E+00  0.60828E+02    0.87500E-01  0.87500E-01 -0.17500E+00  0.00000E+00  0.00000E+00  0.00000E+00    0.26316E+02  0.10349E+02 -0.36665E+02  0.58771E+01 -0.36749E+01  0.10647E+02      982.00
  0.17935E+00  0.61129E+02    0.10000E+00  0.10000E+00 -0.20000E+00  0.00000E+00  0.00000E+00  0.00000E+00    0.26639E+02  0.10280E+02 -0.36919E+02  0.57889E+01 -0.38304E+01  0.10405E+02      982.00
  0.20199E+00  0.61452E+02    0.11250E+00  0.11250E+00 -0.22500E+00  0.00000E+00  0.00000E+00  0.00000E+00    0.26970E+02  0.10204E+02 -0.37174E+02  0.56858E+01 -0.39605E+01  0.10200E+02      982.00
  0.22468E+00  0.61792E+02    0.12500E+00  0.12500E+00 -0.25000E+00  0.00000E+00  0.00000E+00  0.00000E+00    0.27291E+02  0.10141E+02 -0.37432E+02  0.55765E+01 -0.40714E+01  0.10033E+02      982.00
  0.24740E+00  0.62136E+02    0.13750E+00  0.13750E+00 -0.27500E+00  0.00000E+00  0.00000E+00  0.00000E+00    0.27605E+02  0.10078E+02 -0.37683E+02  0.54705E+01 -0.41668E+01  0.98922E+01      982.00
  0.27014E+00  0.62486E+02    0.15000E+00  0.15000E+00 -0.30000E+00  0.00000E+00  0.00000E+00  0.00000E+00    0.27898E+02  0.10033E+02 -0.37932E+02  0.53693E+01 -0.42530E+01  0.97824E+01      982.00
  0.29290E+00  0.62836E+02    0.16250E+00  0.16250E+00 -0.32500E+00  0.00000E+00  0.00000E+00  0.00000E+00    0.28175E+02  0.10000E+02 -0.38175E+02  0.52772E+01 -0.43329E+01  0.96928E+01      982.00
  0.31568E+00  0.63182E+02    0.17500E+00  0.17500E+00 -0.35000E+00  0.00000E+00  0.00000E+00  0.00000E+00    0.28436E+02  0.99743E+01 -0.38410E+02  0.51936E+01 -0.44068E+01  0.96206E+01      982.00
  0.33848E+00  0.63528E+02    0.18750E+00  0.18750E+00 -0.37500E+00  0.00000E+00  0.00000E+00  0.00000E+00    0.28675E+02  0.99681E+01 -0.38643E+02  0.51149E+01 -0.44751E+01  0.95700E+01      982.00
  0.36129E+00  0.63860E+02    0.20000E+00  0.20000E+00 -0.40000E+00  0.00000E+00  0.00000E+00  0.00000E+00    0.28896E+02  0.99685E+01 -0.38865E+02  0.50457E+01 -0.45424E+01  0.95308E+01      982.00
  0.38411E+00  0.64182E+02    0.21250E+00  0.21250E+00 -0.42500E+00  0.00000E+00  0.00000E+00  0.00000E+00    0.29091E+02  0.99873E+01 -0.39078E+02  0.49826E+01 -0.46089E+01  0.95115E+01      982.00
  0.40695E+00  0.64482E+02    0.22500E+00  0.22500E+00 -0.45000E+00  0.00000E+00  0.00000E+00  0.00000E+00    0.29266E+02  0.10010E+02 -0.39276E+02  0.49248E+01 -0.46736E+01  0.94997E+01      982.00
  0.42979E+00  0.64777E+02    0.23750E+00  0.23750E+00 -0.47500E+00  0.00000E+00  0.00000E+00  0.00000E+00    0.29420E+02  0.10048E+02 -0.39468E+02  0.48709E+01 -0.47402E+01  0.95048E+01      982.00
  0.45264E+00  0.65072E+02    0.25000E+00  0.25000E+00 -0.50000E+00  0.00000E+00  0.00000E+00  0.00000E+00    0.29557E+02  0.10105E+02 -0.39662E+02  0.48174E+01 -0.48070E+01  0.95262E+01      982.00
  0.47549E+00  0.65340E+02    0.26250E+00  0.26250E+00 -0.52500E+00  0.00000E+00  0.00000E+00  0.00000E+00    0.29667E+02  0.10172E+02 -0.39838E+02  0.47732E+01 -0.48601E+01  0.95585E+01      982.00
  0.49836E+00  0.65583E+02    0.27500E+00  0.27500E+00 -0.55000E+00  0.00000E+00  0.00000E+00  0.00000E+00    0.29753E+02  0.10245E+02 -0.39998E+02  0.47319E+01 -0.49067E+01  0.96035E+01      982.00
  0.52123E+00  0.65809E+02    0.28750E+00  0.28750E+00 -0.57500E+00  0.00000E+00  0.00000E+00  0.00000E+00    0.29831E+02  0.10315E+02 -0.40145E+02  0.47034E+01 -0.49414E+01  0.96495E+01      982.00
  0.54410E+00  0.66026E+02    0.30000E+00  0.30000E+00 -0.60000E+00  0.00000E+00  0.00000E+00  0.00000E+00    0.29886E+02  0.10401E+02 -0.40288E+02  0.46738E+01 -0.49778E+01  0.97109E+01      982.00
  0.56699E+00  0.66224E+02    0.31250E+00  0.31250E+00 -0.62500E+00  0.00000E+00  0.00000E+00  0.00000E+00    0.29932E+02  0.10487E+02 -0.40419E+02  0.46490E+01 -0.49956E+01  0.97726E+01      982.00
  0.58987E+00  0.66406E+02    0.32500E+00  0.32500E+00 -0.65000E+00  0.00000E+00  0.00000E+00  0.00000E+00    0.29953E+02  0.10586E+02 -0.40539E+02  0.46307E+01 -0.50156E+01  0.98482E+01      982.00
  0.61277E+00  0.66568E+02    0.33750E+00  0.33750E+00 -0.67500E+00  0.00000E+00  0.00000E+00  0.00000E+00    0.29954E+02  0.10694E+02 -0.40647E+02  0.46176E+01 -0.50243E+01  0.99317E+01      982.00
  0.63566E+00  0.66721E+02    0.35000E+00  0.35000E+00 -0.70000E+00  0.00000E+00  0.00000E+00  0.00000E+00    0.29939E+02  0.10812E+02 -0.40752E+02  0.46106E+01 -0.50223E+01  0.10022E+02      982.00
  0.65857E+00  0.66855E+02    0.36250E+00  0.36250E+00 -0.72500E+00  0.00000E+00  0.00000E+00  0.00000E+00    0.29906E+02  0.10938E+02 -0.40844E+02  0.46088E+01 -0.50092E+01  0.10121E+02      982.00
  0.68148E+00  0.66977E+02    0.37500E+00  0.37500E+00 -0.75000E+00  0.00000E+00  0.00000E+00  0.00000E+00    0.29857E+02  0.11073E+02 -0.40930E+02  0.46124E+01 -0.49871E+01  0.10222E+02      982.00
  0.70439E+00  0.67085E+02    0.38750E+00  0.38750E+00 -0.77500E+00  0.00000E+00  0.00000E+00  0.00000E+00    0.29792E+02  0.11218E+02 -0.41010E+02  0.46193E+01 -0.49552E+01  0.10327E+02      982.00
  0.72732E+00  0.67191E+02    0.40000E+00  0.40000E+00 -0.80000E+00  0.00000E+00  0.00000E+00  0.00000E+00    0.29717E+02  0.11372E+02 -0.41089E+02  0.46304E+01 -0.49164E+01  0.10435E+02      982.00
  0.75025E+00  0.67281E+02    0.41250E+00  0.41250E+00 -0.82500E+00  0.00000E+00  0.00000E+00  0.00000E+00    0.29628E+02  0.11532E+02 -0.41160E+02  0.46440E+01 -0.48703E+01  0.10543E+02      982.00
  0.77319E+00  0.67367E+02    0.42500E+00  0.42500E+00 -0.85000E+00  0.00000E+00  0.00000E+00  0.00000E+00    0.29533E+02  0.11696E+02 -0.41229E+02  0.46582E+01 -0.48183E+01  0.10649E+02      982.00
  0.79614E+00  0.67446E+02    0.43750E+00  0.43750E+00 -0.87500E+00  0.00000E+00  0.00000E+00  0.00000E+00    0.29431E+02  0.11865E+02 -0.41296E+02  0.46731E+01 -0.47654E+01  0.10753E+02      982.00
  0.81910E+00  0.67521E+02    0.45000E+00  0.45000E+00 -0.90000E+00  0.00000E+00  0.00000E+00  0.00000E+00    0.29328E+02  0.12032E+02 -0.41361E+02  0.46878E+01 -0.47172E+01  0.10847E+02      982.00
  0.84207E+00  0.67582E+02    0.46250E+00  0.46250E+00 -0.92500E+00  0.00000E+00  0.00000E+00  0.00000E+00    0.29215E+02  0.12203E+02 -0.41417E+02  0.47018E+01 -0.46607E+01  0.10941E+02      982.00
  0.86506E+00  0.67646E+02    0.47500E+00  0.47500E+00 -0.95000E+00  0.00000E+00  0.00000E+00  0.00000E+00    0.29102E+02  0.12376E+02 -0.41478E+02  0.47139E+01 -0.46049E+01  0.11031E+02      982.00
  0.88805E+00  0.67699E+02    0.48750E+00  0.48750E+00 -0.97500E+00  0.00000E+00  0.00000E+00  0.00000E+00    0.28986E+02  0.12545E+02 -0.41531E+02  0.47246E+01 -0.45498E+01  0.11114E+02      982.00
  0.91105E+00  0.67756E+02    0.50000E+00  0.50000E+00 -0.10000E+01  0.00000E+00  0.00000E+00  0.00000E+00    0.28874E+02  0.12713E+02 -0.41587E+02  0.47336E+01 -0.44951E+01  0.11192E+02      982.00
