          Evm          Svm            E11          E22          E33          E23          E13          E12         SDEV11       SDEV22       SDEV33       SDEV23       SDEV13       SDEV12      TEMP
  0.00000E+00  0.60137E+02    0.00000E+00  0.00000E+00  0.00000E+00  0.00000E+00  0.00000E+00  0.00000E+00    0.24503E+02  0.11834E+02 -0.36337E+02  0.64396E+01 -0.29843E+01  0.11167E+02      982.00
  0.22659E-01  0.60377E+02    0.12500E-01  0.12500E-01 -0.25000E-01  0.00000E+00  0.00000E+00  0.00000E+00    0.24767E+02  0.11807E+02 -0.36574E+02  0.65447E+01 -0.31462E+01  0.10823E+02      982.00
  0.45375E-01  0.60542E+02    0.25000E-01  0.25000E-01 -0.50000E-01  0.00000E+00  0.00000E+00  0.00000E+00    0.24968E+02  0.11813E+02 -0.36781E+02  0.65419E+01 -0.33072E+01  0.10495E+02      982.00
  0.68158E-01  0.60703E+02    0.37500E-01  0.37500E-01 -0.75000E-01  0.00000E+00  0.00000E+00  0.00000E+00    0.25185E+02  0.11799E+02 -0.36985E+02  0.64482E+01 -0.34635E+01  0.10198E+02      982.00
  0.91006E-01  0.60886E+02    0.50000E-01  0.50000E-01 -0.10000E+00  0.00000E+00  0.00000E+00  0.00000E+00    0.25436E+02  0.11756E+02 -0.37193E+02  0.62950E+01 -0.36068E+01  0.99402E+01      982.00
  0.11391E+00  0.61097E+02    0.62500E-01  0.62500E-01 -0.12500E+00  0.00000E+00  0.00000E+00  0.00000E+00    0.25717E+02  0.11688E+02 -0.37404E+02  0.61118E+01 -0.37322E+01  0.97202E+01      982.00
  0.13687E+00  0.61334E+02    0.75000E-01  0.75000E-01 -0.15000E+00  0.00000E+00  0.00000E+00  0.00000E+00    0.26018E+02  0.11600E+02 -0.37618E+02  0.59200E+01 -0.38381E+01  0.95332E+01      982.00
  0.15987E+00  0.61596E+02    0.87500E-01  0.87500E-01 -0.17500E+00  0.00000E+00  0.00000E+00  0.00000E+00    0.26327E+02  0.11506E+02 -0.37832E+02  0.57323E+01 -0.39278E+01  0.93811E+01      982.00
  0.18290E+00  0.61880E+02    0.10000E+00  0.10000E+00 -0.20000E+00  0.00000E+00  0.00000E+00  0.00000E+00    0.26637E+02  0.11412E+02 -0.38049E+02  0.55562E+01 -0.40047E+01  0.92600E+01      982.00
  0.20596E+00  0.62184E+02    0.11250E+00  0.11250E+00 -0.22500E+00  0.00000E+00  0.00000E+00  0.00000E+00    0.26943E+02  0.11324E+02 -0.38266E+02  0.53954E+01 -0.40722E+01  0.91669E+01      982.00
  0.22904E+00  0.62504E+02    0.12500E+00  0.12500E+00 -0.25000E+00  0.00000E+00  0.00000E+00  0.00000E+00    0.27246E+02  0.11239E+02 -0.38485E+02  0.52520E+01 -0.41329E+01  0.90958E+01      982.00
  0.25213E+00  0.62834E+02    0.13750E+00  0.13750E+00 -0.27500E+00  0.00000E+00  0.00000E+00  0.00000E+00    0.27528E+02  0.11175E+02 -0.38703E+02  0.51236E+01 -0.41909E+01  0.90504E+01      982.00
  0.27523E+00  0.63168E+02    0.15000E+00  0.15000E+00 -0.30000E+00  0.00000E+00  0.00000E+00  0.00000E+00    0.27802E+02  0.11116E+02 -0.38918E+02  0.50105E+01 -0.42456E+01  0.90207E+01      982.00
  0.29833E+00  0.63506E+02    0.16250E+00  0.16250E+00 -0.32500E+00  0.00000E+00  0.00000E+00  0.00000E+00    0.28053E+02  0.11079E+02 -0.39132E+02  0.49107E+01 -0.43020E+01  0.90120E+01      982.00
  0.32144E+00  0.63839E+02    0.17500E+00  0.17500E+00 -0.35000E+00  0.00000E+00  0.00000E+00  0.00000E+00    0.28287E+02  0.11053E+02 -0.39340E+02  0.48204E+01 -0.43556E+01  0.90146E+01      982.00
  0.34455E+00  0.64156E+02    0.18750E+00  0.18750E+00 -0.37500E+00  0.00000E+00  0.00000E+00  0.00000E+00    0.28503E+02  0.11033E+02 -0.39535E+02  0.47405E+01 -0.44084E+01  0.90276E+01      982.00
  0.36765E+00  0.64476E+02    0.20000E+00  0.20000E+00 -0.40000E+00  0.00000E+00  0.00000E+00  0.00000E+00    0.28696E+02  0.11035E+02 -0.39731E+02  0.46703E+01 -0.44660E+01  0.90583E+01      982.00
  0.39076E+00  0.64772E+02    0.21250E+00  0.21250E+00 -0.42500E+00  0.00000E+00  0.00000E+00  0.00000E+00    0.28871E+02  0.11039E+02 -0.39910E+02  0.46058E+01 -0.45212E+01  0.90950E+01      982.00
  0.41387E+00  0.65082E+02    0.22500E+00  0.22500E+00 -0.45000E+00  0.00000E+00  0.00000E+00  0.00000E+00    0.29039E+02  0.11055E+02 -0.40093E+02  0.45391E+01 -0.45833E+01  0.91538E+01      982.00
  0.43697E+00  0.65358E+02    0.23750E+00  0.23750E+00 -0.47500E+00  0.00000E+00  0.00000E+00  0.00000E+00    0.29168E+02  0.11092E+02 -0.40260E+02  0.44871E+01 -0.46390E+01  0.92140E+01      982.00
  0.46007E+00  0.65616E+02    0.25000E+00  0.25000E+00 -0.50000E+00  0.00000E+00  0.00000E+00  0.00000E+00    0.29275E+02  0.11141E+02 -0.40415E+02  0.44406E+01 -0.46923E+01  0.92828E+01      982.00
  0.48317E+00  0.65857E+02    0.26250E+00  0.26250E+00 -0.52500E+00  0.00000E+00  0.00000E+00  0.00000E+00    0.29362E+02  0.11197E+02 -0.40560E+02  0.43992E+01 -0.47421E+01  0.93594E+01      982.00
  0.50626E+00  0.66049E+02    0.27500E+00  0.27500E+00 -0.55000E+00  0.00000E+00  0.00000E+00  0.00000E+00    0.29428E+02  0.11247E+02 -0.40675E+02  0.43709E+01 -0.47767E+01  0.94221E+01      982.00
  0.52936E+00  0.66259E+02    0.28750E+00  0.28750E+00 -0.57500E+00  0.00000E+00  0.00000E+00  0.00000E+00    0.29483E+02  0.11315E+02 -0.40798E+02  0.43409E+01 -0.48167E+01  0.95118E+01      982.00
  0.55245E+00  0.66475E+02    0.30000E+00  0.30000E+00 -0.60000E+00  0.00000E+00  0.00000E+00  0.00000E+00    0.29537E+02  0.11387E+02 -0.40924E+02  0.43204E+01 -0.48514E+01  0.96097E+01      982.00
  0.57553E+00  0.66644E+02    0.31250E+00  0.31250E+00 -0.62500E+00  0.00000E+00  0.00000E+00  0.00000E+00    0.29551E+02  0.11473E+02 -0.41024E+02  0.43018E+01 -0.48759E+01  0.97102E+01      982.00
  0.59862E+00  0.66802E+02    0.32500E+00  0.32500E+00 -0.65000E+00  0.00000E+00  0.00000E+00  0.00000E+00    0.29550E+02  0.11567E+02 -0.41117E+02  0.42908E+01 -0.48924E+01  0.98181E+01      982.00
  0.62170E+00  0.66944E+02    0.33750E+00  0.33750E+00 -0.67500E+00  0.00000E+00  0.00000E+00  0.00000E+00    0.29529E+02  0.11672E+02 -0.41201E+02  0.42862E+01 -0.48994E+01  0.99311E+01      982.00
  0.64478E+00  0.67072E+02    0.35000E+00  0.35000E+00 -0.70000E+00  0.00000E+00  0.00000E+00  0.00000E+00    0.29490E+02  0.11787E+02 -0.41277E+02  0.42878E+01 -0.48964E+01  0.10049E+02      982.00
  0.66785E+00  0.67186E+02    0.36250E+00  0.36250E+00 -0.72500E+00  0.00000E+00  0.00000E+00  0.00000E+00    0.29434E+02  0.11913E+02 -0.41347E+02  0.42953E+01 -0.48834E+01  0.10169E+02      982.00
  0.69093E+00  0.67287E+02    0.37500E+00  0.37500E+00 -0.75000E+00  0.00000E+00  0.00000E+00  0.00000E+00    0.29362E+02  0.12048E+02 -0.41411E+02  0.43080E+01 -0.48611E+01  0.10292E+02      982.00
  0.71401E+00  0.67379E+02    0.38750E+00  0.38750E+00 -0.77500E+00  0.00000E+00  0.00000E+00  0.00000E+00    0.29276E+02  0.12193E+02 -0.41470E+02  0.43249E+01 -0.48304E+01  0.10416E+02      982.00
  0.73709E+00  0.67461E+02    0.40000E+00  0.40000E+00 -0.80000E+00  0.00000E+00  0.00000E+00  0.00000E+00    0.29179E+02  0.12346E+02 -0.41525E+02  0.43449E+01 -0.47926E+01  0.10539E+02      982.00
  0.76017E+00  0.67535E+02    0.41250E+00  0.41250E+00 -0.82500E+00  0.00000E+00  0.00000E+00  0.00000E+00    0.29071E+02  0.12506E+02 -0.41577E+02  0.43669E+01 -0.47492E+01  0.10660E+02      982.00
  0.78326E+00  0.67603E+02    0.42500E+00  0.42500E+00 -0.85000E+00  0.00000E+00  0.00000E+00  0.00000E+00    0.28956E+02  0.12670E+02 -0.41626E+02  0.43900E+01 -0.47018E+01  0.10777E+02      982.00
  0.80635E+00  0.67665E+02    0.43750E+00  0.43750E+00 -0.87500E+00  0.00000E+00  0.00000E+00  0.00000E+00    0.28836E+02  0.12837E+02 -0.41673E+02  0.44130E+01 -0.46518E+01  0.10890E+02      982.00
  0.82945E+00  0.67723E+02    0.45000E+00  0.45000E+00 -0.90000E+00  0.00000E+00  0.00000E+00  0.00000E+00    0.28713E+02  0.13005E+02 -0.41719E+02  0.44353E+01 -0.46006E+01  0.10997E+02      982.00
  0.85255E+00  0.67777E+02    0.46250E+00  0.46250E+00 -0.92500E+00  0.00000E+00  0.00000E+00  0.00000E+00    0.28589E+02  0.13174E+02 -0.41763E+02  0.44562E+01 -0.45493E+01  0.11098E+02      982.00
  0.87565E+00  0.67828E+02    0.47500E+00  0.47500E+00 -0.95000E+00  0.00000E+00  0.00000E+00  0.00000E+00    0.28466E+02  0.13340E+02 -0.41806E+02  0.44755E+01 -0.44986E+01  0.11192E+02      982.00
  0.89877E+00  0.67875E+02    0.48750E+00  0.48750E+00 -0.97500E+00  0.00000E+00  0.00000E+00  0.00000E+00    0.28344E+02  0.13504E+02 -0.41848E+02  0.44928E+01 -0.44492E+01  0.11280E+02      982.00
  0.92189E+00  0.67879E+02    0.50000E+00  0.50000E+00 -0.10000E+01  0.00000E+00  0.00000E+00  0.00000E+00    0.28209E+02  0.13656E+02 -0.41865E+02  0.44962E+01 -0.43883E+01  0.11355E+02      982.00
