          Evm          Svm            E11          E22          E33          E23          E13          E12         SDEV11       SDEV22       SDEV33       SDEV23       SDEV13       SDEV12      TEMP
  0.00000E+00  0.49508E+02    0.00000E+00  0.00000E+00  0.00000E+00  0.00000E+00  0.00000E+00  0.00000E+00    0.12585E+02  0.19199E+02 -0.31784E+02 -0.39901E+01  0.39893E+00 -0.56884E+01      982.00
  0.24074E-01  0.50104E+02    0.12500E-01  0.12500E-01 -0.25000E-01  0.00000E+00  0.00000E+00  0.00000E+00    0.12905E+02  0.18942E+02 -0.31847E+02 -0.46708E+01 -0.69047E+00 -0.66901E+01      982.00
  0.47910E-01  0.50704E+02    0.25000E-01  0.25000E-01 -0.50000E-01  0.00000E+00  0.00000E+00  0.00000E+00    0.13265E+02  0.18685E+02 -0.31950E+02 -0.51542E+01 -0.14857E+01 -0.74320E+01      982.00
  0.71540E-01  0.51291E+02    0.37500E-01  0.37500E-01 -0.75000E-01  0.00000E+00  0.00000E+00  0.00000E+00    0.13622E+02  0.18475E+02 -0.32097E+02 -0.55123E+01 -0.20362E+01 -0.79909E+01      982.00
  0.95006E-01  0.51862E+02    0.50000E-01  0.50000E-01 -0.10000E+00  0.00000E+00  0.00000E+00  0.00000E+00    0.13945E+02  0.18334E+02 -0.32279E+02 -0.57828E+01 -0.24150E+01 -0.84269E+01      982.00
  0.11835E+00  0.52412E+02    0.62500E-01  0.62500E-01 -0.12500E+00  0.00000E+00  0.00000E+00  0.00000E+00    0.14221E+02  0.18267E+02 -0.32488E+02 -0.59846E+01 -0.26752E+01 -0.87761E+01      982.00
  0.14159E+00  0.52947E+02    0.75000E-01  0.75000E-01 -0.15000E+00  0.00000E+00  0.00000E+00  0.00000E+00    0.14453E+02  0.18264E+02 -0.32717E+02 -0.61335E+01 -0.28581E+01 -0.90677E+01      982.00
  0.16476E+00  0.53473E+02    0.87500E-01  0.87500E-01 -0.17500E+00  0.00000E+00  0.00000E+00  0.00000E+00    0.14648E+02  0.18318E+02 -0.32966E+02 -0.62388E+01 -0.29880E+01 -0.93192E+01      982.00
  0.18788E+00  0.53990E+02    0.10000E+00  0.10000E+00 -0.20000E+00  0.00000E+00  0.00000E+00  0.00000E+00    0.14813E+02  0.18415E+02 -0.33228E+02 -0.63096E+01 -0.30841E+01 -0.95382E+01      982.00
  0.21096E+00  0.54498E+02    0.11250E+00  0.11250E+00 -0.22500E+00  0.00000E+00  0.00000E+00  0.00000E+00    0.14949E+02  0.18553E+02 -0.33502E+02 -0.63517E+01 -0.31517E+01 -0.97308E+01      982.00
  0.23401E+00  0.55015E+02    0.12500E+00  0.12500E+00 -0.25000E+00  0.00000E+00  0.00000E+00  0.00000E+00    0.15063E+02  0.18724E+02 -0.33787E+02 -0.63810E+01 -0.32109E+01 -0.99172E+01      982.00
  0.25704E+00  0.55525E+02    0.13750E+00  0.13750E+00 -0.27500E+00  0.00000E+00  0.00000E+00  0.00000E+00    0.15164E+02  0.18920E+02 -0.34084E+02 -0.63814E+01 -0.32487E+01 -0.10079E+02      982.00
  0.28006E+00  0.56040E+02    0.15000E+00  0.15000E+00 -0.30000E+00  0.00000E+00  0.00000E+00  0.00000E+00    0.15258E+02  0.19133E+02 -0.34391E+02 -0.63693E+01 -0.32825E+01 -0.10231E+02      982.00
  0.30308E+00  0.56578E+02    0.16250E+00  0.16250E+00 -0.32500E+00  0.00000E+00  0.00000E+00  0.00000E+00    0.15341E+02  0.19370E+02 -0.34711E+02 -0.63547E+01 -0.33215E+01 -0.10387E+02      982.00
  0.32608E+00  0.57102E+02    0.17500E+00  0.17500E+00 -0.35000E+00  0.00000E+00  0.00000E+00  0.00000E+00    0.15428E+02  0.19606E+02 -0.35034E+02 -0.63258E+01 -0.33568E+01 -0.10521E+02      982.00
  0.34909E+00  0.57628E+02    0.18750E+00  0.18750E+00 -0.37500E+00  0.00000E+00  0.00000E+00  0.00000E+00    0.15515E+02  0.19847E+02 -0.35362E+02 -0.62917E+01 -0.33945E+01 -0.10646E+02      982.00
  0.37210E+00  0.58154E+02    0.20000E+00  0.20000E+00 -0.40000E+00  0.00000E+00  0.00000E+00  0.00000E+00    0.15603E+02  0.20090E+02 -0.35693E+02 -0.62537E+01 -0.34353E+01 -0.10763E+02      982.00
  0.39512E+00  0.58677E+02    0.21250E+00  0.21250E+00 -0.42500E+00  0.00000E+00  0.00000E+00  0.00000E+00    0.15693E+02  0.20333E+02 -0.36026E+02 -0.62126E+01 -0.34791E+01 -0.10870E+02      982.00
  0.41814E+00  0.59196E+02    0.22500E+00  0.22500E+00 -0.45000E+00  0.00000E+00  0.00000E+00  0.00000E+00    0.15786E+02  0.20574E+02 -0.36360E+02 -0.61691E+01 -0.35255E+01 -0.10969E+02      982.00
  0.44118E+00  0.59708E+02    0.23750E+00  0.23750E+00 -0.47500E+00  0.00000E+00  0.00000E+00  0.00000E+00    0.15882E+02  0.20810E+02 -0.36692E+02 -0.61234E+01 -0.35741E+01 -0.11057E+02      982.00
  0.46422E+00  0.60210E+02    0.25000E+00  0.25000E+00 -0.50000E+00  0.00000E+00  0.00000E+00  0.00000E+00    0.15980E+02  0.21042E+02 -0.37022E+02 -0.60757E+01 -0.36240E+01 -0.11135E+02      982.00
  0.48728E+00  0.60701E+02    0.26250E+00  0.26250E+00 -0.52500E+00  0.00000E+00  0.00000E+00  0.00000E+00    0.16081E+02  0.21266E+02 -0.37347E+02 -0.60261E+01 -0.36746E+01 -0.11204E+02      982.00
  0.51035E+00  0.61178E+02    0.27500E+00  0.27500E+00 -0.55000E+00  0.00000E+00  0.00000E+00  0.00000E+00    0.16184E+02  0.21484E+02 -0.37668E+02 -0.59747E+01 -0.37253E+01 -0.11263E+02      982.00
  0.53344E+00  0.61638E+02    0.28750E+00  0.28750E+00 -0.57500E+00  0.00000E+00  0.00000E+00  0.00000E+00    0.16289E+02  0.21692E+02 -0.37981E+02 -0.59191E+01 -0.37731E+01 -0.11310E+02      982.00
  0.55655E+00  0.62077E+02    0.30000E+00  0.30000E+00 -0.60000E+00  0.00000E+00  0.00000E+00  0.00000E+00    0.16394E+02  0.21890E+02 -0.38283E+02 -0.58698E+01 -0.38114E+01 -0.11347E+02      982.00
  0.57967E+00  0.62509E+02    0.31250E+00  0.31250E+00 -0.62500E+00  0.00000E+00  0.00000E+00  0.00000E+00    0.16500E+02  0.22083E+02 -0.38583E+02 -0.58145E+01 -0.38579E+01 -0.11380E+02      982.00
  0.60282E+00  0.62925E+02    0.32500E+00  0.32500E+00 -0.65000E+00  0.00000E+00  0.00000E+00  0.00000E+00    0.16607E+02  0.22267E+02 -0.38874E+02 -0.57574E+01 -0.39029E+01 -0.11404E+02      982.00
  0.62599E+00  0.63323E+02    0.33750E+00  0.33750E+00 -0.67500E+00  0.00000E+00  0.00000E+00  0.00000E+00    0.16715E+02  0.22442E+02 -0.39157E+02 -0.56988E+01 -0.39455E+01 -0.11420E+02      982.00
  0.64918E+00  0.63704E+02    0.35000E+00  0.35000E+00 -0.70000E+00  0.00000E+00  0.00000E+00  0.00000E+00    0.16822E+02  0.22609E+02 -0.39430E+02 -0.56389E+01 -0.39857E+01 -0.11428E+02      982.00
  0.67239E+00  0.64052E+02    0.36250E+00  0.36250E+00 -0.72500E+00  0.00000E+00  0.00000E+00  0.00000E+00    0.16924E+02  0.22761E+02 -0.39685E+02 -0.55782E+01 -0.40179E+01 -0.11428E+02      982.00
  0.69562E+00  0.64400E+02    0.37500E+00  0.37500E+00 -0.75000E+00  0.00000E+00  0.00000E+00  0.00000E+00    0.17029E+02  0.22911E+02 -0.39940E+02 -0.55166E+01 -0.40528E+01 -0.11424E+02      982.00
  0.71888E+00  0.64730E+02    0.38750E+00  0.38750E+00 -0.77500E+00  0.00000E+00  0.00000E+00  0.00000E+00    0.17133E+02  0.23053E+02 -0.40185E+02 -0.54541E+01 -0.40852E+01 -0.11415E+02      982.00
  0.74216E+00  0.65043E+02    0.40000E+00  0.40000E+00 -0.80000E+00  0.00000E+00  0.00000E+00  0.00000E+00    0.17234E+02  0.23187E+02 -0.40421E+02 -0.53910E+01 -0.41151E+01 -0.11400E+02      982.00
  0.76546E+00  0.65353E+02    0.41250E+00  0.41250E+00 -0.82500E+00  0.00000E+00  0.00000E+00  0.00000E+00    0.17334E+02  0.23322E+02 -0.40655E+02 -0.53331E+01 -0.41353E+01 -0.11381E+02      982.00
  0.78879E+00  0.65634E+02    0.42500E+00  0.42500E+00 -0.85000E+00  0.00000E+00  0.00000E+00  0.00000E+00    0.17430E+02  0.23441E+02 -0.40871E+02 -0.52699E+01 -0.41600E+01 -0.11358E+02      982.00
  0.81214E+00  0.65900E+02    0.43750E+00  0.43750E+00 -0.87500E+00  0.00000E+00  0.00000E+00  0.00000E+00    0.17523E+02  0.23554E+02 -0.41077E+02 -0.52064E+01 -0.41827E+01 -0.11331E+02      982.00
  0.83552E+00  0.66151E+02    0.45000E+00  0.45000E+00 -0.90000E+00  0.00000E+00  0.00000E+00  0.00000E+00    0.17613E+02  0.23661E+02 -0.41274E+02 -0.51429E+01 -0.42033E+01 -0.11301E+02      982.00
  0.85892E+00  0.66388E+02    0.46250E+00  0.46250E+00 -0.92500E+00  0.00000E+00  0.00000E+00  0.00000E+00    0.17700E+02  0.23762E+02 -0.41462E+02 -0.50796E+01 -0.42219E+01 -0.11268E+02      982.00
  0.88234E+00  0.66612E+02    0.47500E+00  0.47500E+00 -0.95000E+00  0.00000E+00  0.00000E+00  0.00000E+00    0.17783E+02  0.23858E+02 -0.41641E+02 -0.50167E+01 -0.42388E+01 -0.11233E+02      982.00
  0.90578E+00  0.66748E+02    0.48750E+00  0.48750E+00 -0.97500E+00  0.00000E+00  0.00000E+00  0.00000E+00    0.17847E+02  0.23929E+02 -0.41776E+02 -0.49322E+01 -0.42258E+01 -0.11170E+02      982.00
  0.92925E+00  0.66880E+02    0.50000E+00  0.50000E+00 -0.10000E+01  0.00000E+00  0.00000E+00  0.00000E+00    0.17910E+02  0.23994E+02 -0.41904E+02 -0.48520E+01 -0.42171E+01 -0.11111E+02      982.00
