          Evm          Svm            E11          E22          E33          E23          E13          E12         SDEV11       SDEV22       SDEV33       SDEV23       SDEV13       SDEV12      TEMP
  0.00000E+00  0.56687E+02    0.00000E+00  0.00000E+00  0.00000E+00  0.00000E+00  0.00000E+00  0.00000E+00    0.20678E+02  0.14254E+02 -0.34932E+02 -0.52366E+00  0.48248E+01  0.11050E+02      982.00
  0.23108E-01  0.56771E+02    0.12500E-01  0.12500E-01 -0.25000E-01  0.00000E+00  0.00000E+00  0.00000E+00    0.20150E+02  0.14803E+02 -0.34953E+02 -0.79742E+00  0.44769E+01  0.11410E+02      982.00
  0.46197E-01  0.56914E+02    0.25000E-01  0.25000E-01 -0.50000E-01  0.00000E+00  0.00000E+00  0.00000E+00    0.19675E+02  0.15313E+02 -0.34987E+02 -0.10311E+01  0.41774E+01  0.11764E+02      982.00
  0.69249E-01  0.57123E+02    0.37500E-01  0.37500E-01 -0.75000E-01  0.00000E+00  0.00000E+00  0.00000E+00    0.19282E+02  0.15757E+02 -0.35039E+02 -0.12283E+01  0.39172E+01  0.12121E+02      982.00
  0.92252E-01  0.57406E+02    0.50000E-01  0.50000E-01 -0.10000E+00  0.00000E+00  0.00000E+00  0.00000E+00    0.18994E+02  0.16122E+02 -0.35117E+02 -0.13891E+01  0.36929E+01  0.12489E+02      982.00
  0.11519E+00  0.57754E+02    0.62500E-01  0.62500E-01 -0.12500E+00  0.00000E+00  0.00000E+00  0.00000E+00    0.18803E+02  0.16417E+02 -0.35221E+02 -0.15184E+01  0.34964E+01  0.12866E+02      982.00
  0.13806E+00  0.58149E+02    0.75000E-01  0.75000E-01 -0.15000E+00  0.00000E+00  0.00000E+00  0.00000E+00    0.18689E+02  0.16656E+02 -0.35345E+02 -0.16211E+01  0.33219E+01  0.13246E+02      982.00
  0.16085E+00  0.58572E+02    0.87500E-01  0.87500E-01 -0.17500E+00  0.00000E+00  0.00000E+00  0.00000E+00    0.18637E+02  0.16847E+02 -0.35483E+02 -0.16991E+01  0.31680E+01  0.13621E+02      982.00
  0.18357E+00  0.59009E+02    0.10000E+00  0.10000E+00 -0.20000E+00  0.00000E+00  0.00000E+00  0.00000E+00    0.18620E+02  0.17011E+02 -0.35631E+02 -0.17622E+01  0.30277E+01  0.13987E+02      982.00
  0.20621E+00  0.59447E+02    0.11250E+00  0.11250E+00 -0.22500E+00  0.00000E+00  0.00000E+00  0.00000E+00    0.18627E+02  0.17154E+02 -0.35781E+02 -0.18123E+01  0.29016E+01  0.14336E+02      982.00
  0.22879E+00  0.59884E+02    0.12500E+00  0.12500E+00 -0.25000E+00  0.00000E+00  0.00000E+00  0.00000E+00    0.18650E+02  0.17285E+02 -0.35936E+02 -0.18518E+01  0.27903E+01  0.14669E+02      982.00
  0.25129E+00  0.60297E+02    0.13750E+00  0.13750E+00 -0.27500E+00  0.00000E+00  0.00000E+00  0.00000E+00    0.18675E+02  0.17408E+02 -0.36083E+02 -0.18865E+01  0.26880E+01  0.14974E+02      982.00
  0.27373E+00  0.60697E+02    0.15000E+00  0.15000E+00 -0.30000E+00  0.00000E+00  0.00000E+00  0.00000E+00    0.18704E+02  0.17524E+02 -0.36228E+02 -0.19122E+01  0.25984E+01  0.15262E+02      982.00
  0.29611E+00  0.61067E+02    0.16250E+00  0.16250E+00 -0.32500E+00  0.00000E+00  0.00000E+00  0.00000E+00    0.18724E+02  0.17640E+02 -0.36364E+02 -0.19394E+01  0.25140E+01  0.15521E+02      982.00
  0.31844E+00  0.61423E+02    0.17500E+00  0.17500E+00 -0.35000E+00  0.00000E+00  0.00000E+00  0.00000E+00    0.18744E+02  0.17753E+02 -0.36497E+02 -0.19595E+01  0.24417E+01  0.15765E+02      982.00
  0.34073E+00  0.61756E+02    0.18750E+00  0.18750E+00 -0.37500E+00  0.00000E+00  0.00000E+00  0.00000E+00    0.18758E+02  0.17864E+02 -0.36622E+02 -0.19776E+01  0.23767E+01  0.15988E+02      982.00
  0.36296E+00  0.62061E+02    0.20000E+00  0.20000E+00 -0.40000E+00  0.00000E+00  0.00000E+00  0.00000E+00    0.18762E+02  0.17978E+02 -0.36740E+02 -0.19969E+01  0.23172E+01  0.16185E+02      982.00
  0.38516E+00  0.62351E+02    0.21250E+00  0.21250E+00 -0.42500E+00  0.00000E+00  0.00000E+00  0.00000E+00    0.18765E+02  0.18086E+02 -0.36852E+02 -0.20116E+01  0.22646E+01  0.16372E+02      982.00
  0.40733E+00  0.62618E+02    0.22500E+00  0.22500E+00 -0.45000E+00  0.00000E+00  0.00000E+00  0.00000E+00    0.18764E+02  0.18191E+02 -0.36956E+02 -0.20246E+01  0.22173E+01  0.16541E+02      982.00
  0.42946E+00  0.62865E+02    0.23750E+00  0.23750E+00 -0.47500E+00  0.00000E+00  0.00000E+00  0.00000E+00    0.18760E+02  0.18293E+02 -0.37053E+02 -0.20358E+01  0.21749E+01  0.16695E+02      982.00
  0.45156E+00  0.63071E+02    0.25000E+00  0.25000E+00 -0.50000E+00  0.00000E+00  0.00000E+00  0.00000E+00    0.18742E+02  0.18393E+02 -0.37136E+02 -0.20479E+01  0.21305E+01  0.16821E+02      982.00
  0.47364E+00  0.63285E+02    0.26250E+00  0.26250E+00 -0.52500E+00  0.00000E+00  0.00000E+00  0.00000E+00    0.18734E+02  0.18488E+02 -0.37222E+02 -0.20556E+01  0.20967E+01  0.16949E+02      982.00
  0.49570E+00  0.63482E+02    0.27500E+00  0.27500E+00 -0.55000E+00  0.00000E+00  0.00000E+00  0.00000E+00    0.18724E+02  0.18578E+02 -0.37302E+02 -0.20615E+01  0.20669E+01  0.17065E+02      982.00
  0.51773E+00  0.63664E+02    0.28750E+00  0.28750E+00 -0.57500E+00  0.00000E+00  0.00000E+00  0.00000E+00    0.18715E+02  0.18663E+02 -0.37377E+02 -0.20659E+01  0.20402E+01  0.17170E+02      982.00
  0.53975E+00  0.63815E+02    0.30000E+00  0.30000E+00 -0.60000E+00  0.00000E+00  0.00000E+00  0.00000E+00    0.18694E+02  0.18746E+02 -0.37440E+02 -0.20703E+01  0.20091E+01  0.17257E+02      982.00
  0.56175E+00  0.63968E+02    0.31250E+00  0.31250E+00 -0.62500E+00  0.00000E+00  0.00000E+00  0.00000E+00    0.18688E+02  0.18818E+02 -0.37507E+02 -0.20708E+01  0.19912E+01  0.17339E+02      982.00
  0.58374E+00  0.64113E+02    0.32500E+00  0.32500E+00 -0.65000E+00  0.00000E+00  0.00000E+00  0.00000E+00    0.18680E+02  0.18888E+02 -0.37569E+02 -0.20712E+01  0.19727E+01  0.17418E+02      982.00
  0.60571E+00  0.64248E+02    0.33750E+00  0.33750E+00 -0.67500E+00  0.00000E+00  0.00000E+00  0.00000E+00    0.18674E+02  0.18954E+02 -0.37628E+02 -0.20712E+01  0.19560E+01  0.17491E+02      982.00
  0.62767E+00  0.64373E+02    0.35000E+00  0.35000E+00 -0.70000E+00  0.00000E+00  0.00000E+00  0.00000E+00    0.18667E+02  0.19015E+02 -0.37682E+02 -0.20706E+01  0.19410E+01  0.17557E+02      982.00
  0.64962E+00  0.64489E+02    0.36250E+00  0.36250E+00 -0.72500E+00  0.00000E+00  0.00000E+00  0.00000E+00    0.18662E+02  0.19071E+02 -0.37734E+02 -0.20694E+01  0.19275E+01  0.17617E+02      982.00
  0.67157E+00  0.64564E+02    0.37500E+00  0.37500E+00 -0.75000E+00  0.00000E+00  0.00000E+00  0.00000E+00    0.18646E+02  0.19120E+02 -0.37766E+02 -0.20670E+01  0.19089E+01  0.17658E+02      982.00
  0.69350E+00  0.64668E+02    0.38750E+00  0.38750E+00 -0.77500E+00  0.00000E+00  0.00000E+00  0.00000E+00    0.18644E+02  0.19169E+02 -0.37813E+02 -0.20656E+01  0.18979E+01  0.17710E+02      982.00
  0.71543E+00  0.64761E+02    0.40000E+00  0.40000E+00 -0.80000E+00  0.00000E+00  0.00000E+00  0.00000E+00    0.18644E+02  0.19212E+02 -0.37856E+02 -0.20635E+01  0.18883E+01  0.17756E+02      982.00
  0.73735E+00  0.64848E+02    0.41250E+00  0.41250E+00 -0.82500E+00  0.00000E+00  0.00000E+00  0.00000E+00    0.18644E+02  0.19252E+02 -0.37897E+02 -0.20614E+01  0.18794E+01  0.17798E+02      982.00
  0.75926E+00  0.64917E+02    0.42500E+00  0.42500E+00 -0.85000E+00  0.00000E+00  0.00000E+00  0.00000E+00    0.18637E+02  0.19290E+02 -0.37928E+02 -0.20581E+01  0.18655E+01  0.17834E+02      982.00
  0.78117E+00  0.65014E+02    0.43750E+00  0.43750E+00 -0.87500E+00  0.00000E+00  0.00000E+00  0.00000E+00    0.18637E+02  0.19335E+02 -0.37972E+02 -0.20547E+01  0.18508E+01  0.17883E+02      982.00
  0.80308E+00  0.65084E+02    0.45000E+00  0.45000E+00 -0.90000E+00  0.00000E+00  0.00000E+00  0.00000E+00    0.18642E+02  0.19364E+02 -0.38006E+02 -0.20528E+01  0.18425E+01  0.17914E+02      982.00
  0.82497E+00  0.65147E+02    0.46250E+00  0.46250E+00 -0.92500E+00  0.00000E+00  0.00000E+00  0.00000E+00    0.18648E+02  0.19388E+02 -0.38036E+02 -0.20512E+01  0.18362E+01  0.17942E+02      982.00
  0.84687E+00  0.65206E+02    0.47500E+00  0.47500E+00 -0.95000E+00  0.00000E+00  0.00000E+00  0.00000E+00    0.18656E+02  0.19410E+02 -0.38065E+02 -0.20498E+01  0.18308E+01  0.17968E+02      982.00
  0.86876E+00  0.65262E+02    0.48750E+00  0.48750E+00 -0.97500E+00  0.00000E+00  0.00000E+00  0.00000E+00    0.18664E+02  0.19429E+02 -0.38093E+02 -0.20485E+01  0.18257E+01  0.17992E+02      982.00
  0.89065E+00  0.65267E+02    0.50000E+00  0.50000E+00 -0.10000E+01  0.00000E+00  0.00000E+00  0.00000E+00    0.18667E+02  0.19430E+02 -0.38097E+02 -0.20541E+01  0.18284E+01  0.17993E+02      982.00
