          Evm          Svm            E11          E22          E33          E23          E13          E12         SDEV11       SDEV22       SDEV33       SDEV23       SDEV13       SDEV12      TEMP
  0.00000E+00  0.60521E+02    0.00000E+00  0.00000E+00  0.00000E+00  0.00000E+00  0.00000E+00  0.00000E+00    0.17274E+02  0.17229E+02 -0.34503E+02  0.29996E+01 -0.30190E+01  0.17607E+02      982.00
  0.21378E-01  0.60620E+02    0.12500E-01  0.12500E-01 -0.25000E-01  0.00000E+00  0.00000E+00  0.00000E+00    0.17377E+02  0.17310E+02 -0.34688E+02  0.34089E+01 -0.34314E+01  0.17295E+02      982.00
  0.42836E-01  0.60720E+02    0.25000E-01  0.25000E-01 -0.50000E-01  0.00000E+00  0.00000E+00  0.00000E+00    0.17485E+02  0.17401E+02 -0.34886E+02  0.37430E+01 -0.37682E+01  0.16970E+02      982.00
  0.64382E-01  0.60832E+02    0.37500E-01  0.37500E-01 -0.75000E-01  0.00000E+00  0.00000E+00  0.00000E+00    0.17601E+02  0.17501E+02 -0.35102E+02  0.40318E+01 -0.40593E+01  0.16634E+02      982.00
  0.86020E-01  0.60969E+02    0.50000E-01  0.50000E-01 -0.10000E+00  0.00000E+00  0.00000E+00  0.00000E+00    0.17725E+02  0.17610E+02 -0.35335E+02  0.42582E+01 -0.42869E+01  0.16313E+02      982.00
  0.10775E+00  0.61140E+02    0.62500E-01  0.62500E-01 -0.12500E+00  0.00000E+00  0.00000E+00  0.00000E+00    0.17858E+02  0.17727E+02 -0.35585E+02  0.44339E+01 -0.44637E+01  0.16022E+02      982.00
  0.12958E+00  0.61342E+02    0.75000E-01  0.75000E-01 -0.15000E+00  0.00000E+00  0.00000E+00  0.00000E+00    0.17997E+02  0.17851E+02 -0.35848E+02  0.45640E+01 -0.45946E+01  0.15765E+02      982.00
  0.15149E+00  0.61566E+02    0.87500E-01  0.87500E-01 -0.17500E+00  0.00000E+00  0.00000E+00  0.00000E+00    0.18137E+02  0.17977E+02 -0.36113E+02  0.46449E+01 -0.46775E+01  0.15552E+02      982.00
  0.17349E+00  0.61806E+02    0.10000E+00  0.10000E+00 -0.20000E+00  0.00000E+00  0.00000E+00  0.00000E+00    0.18279E+02  0.18102E+02 -0.36381E+02  0.47032E+01 -0.47367E+01  0.15365E+02      982.00
  0.19557E+00  0.62067E+02    0.11250E+00  0.11250E+00 -0.22500E+00  0.00000E+00  0.00000E+00  0.00000E+00    0.18423E+02  0.18231E+02 -0.36654E+02  0.47357E+01 -0.47701E+01  0.15208E+02      982.00
  0.21771E+00  0.62334E+02    0.12500E+00  0.12500E+00 -0.25000E+00  0.00000E+00  0.00000E+00  0.00000E+00    0.18565E+02  0.18355E+02 -0.36920E+02  0.47569E+01 -0.47935E+01  0.15075E+02      982.00
  0.23992E+00  0.62638E+02    0.13750E+00  0.13750E+00 -0.27500E+00  0.00000E+00  0.00000E+00  0.00000E+00    0.18715E+02  0.18486E+02 -0.37201E+02  0.47720E+01 -0.48094E+01  0.14966E+02      982.00
  0.26219E+00  0.62912E+02    0.15000E+00  0.15000E+00 -0.30000E+00  0.00000E+00  0.00000E+00  0.00000E+00    0.18853E+02  0.18604E+02 -0.37458E+02  0.47774E+01 -0.48168E+01  0.14865E+02      982.00
  0.28452E+00  0.63216E+02    0.16250E+00  0.16250E+00 -0.32500E+00  0.00000E+00  0.00000E+00  0.00000E+00    0.18997E+02  0.18730E+02 -0.37728E+02  0.47792E+01 -0.48209E+01  0.14781E+02      982.00
  0.30690E+00  0.63511E+02    0.17500E+00  0.17500E+00 -0.35000E+00  0.00000E+00  0.00000E+00  0.00000E+00    0.19136E+02  0.18850E+02 -0.37987E+02  0.47793E+01 -0.48233E+01  0.14703E+02      982.00
  0.32933E+00  0.63808E+02    0.18750E+00  0.18750E+00 -0.37500E+00  0.00000E+00  0.00000E+00  0.00000E+00    0.19275E+02  0.18970E+02 -0.38245E+02  0.47783E+01 -0.48244E+01  0.14630E+02      982.00
  0.35181E+00  0.64098E+02    0.20000E+00  0.20000E+00 -0.40000E+00  0.00000E+00  0.00000E+00  0.00000E+00    0.19412E+02  0.19083E+02 -0.38496E+02  0.47826E+01 -0.48308E+01  0.14554E+02      982.00
  0.37433E+00  0.64377E+02    0.21250E+00  0.21250E+00 -0.42500E+00  0.00000E+00  0.00000E+00  0.00000E+00    0.19542E+02  0.19193E+02 -0.38735E+02  0.47791E+01 -0.48301E+01  0.14489E+02      982.00
  0.39689E+00  0.64644E+02    0.22500E+00  0.22500E+00 -0.45000E+00  0.00000E+00  0.00000E+00  0.00000E+00    0.19667E+02  0.19298E+02 -0.38966E+02  0.47752E+01 -0.48288E+01  0.14425E+02      982.00
  0.41950E+00  0.64898E+02    0.23750E+00  0.23750E+00 -0.47500E+00  0.00000E+00  0.00000E+00  0.00000E+00    0.19786E+02  0.19398E+02 -0.39184E+02  0.47679E+01 -0.48244E+01  0.14364E+02      982.00
  0.44214E+00  0.65147E+02    0.25000E+00  0.25000E+00 -0.50000E+00  0.00000E+00  0.00000E+00  0.00000E+00    0.19902E+02  0.19495E+02 -0.39397E+02  0.47602E+01 -0.48194E+01  0.14306E+02      982.00
  0.46482E+00  0.65387E+02    0.26250E+00  0.26250E+00 -0.52500E+00  0.00000E+00  0.00000E+00  0.00000E+00    0.20019E+02  0.19588E+02 -0.39607E+02  0.47565E+01 -0.48179E+01  0.14238E+02      982.00
  0.48753E+00  0.65607E+02    0.27500E+00  0.27500E+00 -0.55000E+00  0.00000E+00  0.00000E+00  0.00000E+00    0.20125E+02  0.19674E+02 -0.39799E+02  0.47460E+01 -0.48092E+01  0.14181E+02      982.00
  0.51028E+00  0.65811E+02    0.28750E+00  0.28750E+00 -0.57500E+00  0.00000E+00  0.00000E+00  0.00000E+00    0.20223E+02  0.19755E+02 -0.39977E+02  0.47324E+01 -0.47984E+01  0.14127E+02      982.00
  0.53306E+00  0.66002E+02    0.30000E+00  0.30000E+00 -0.60000E+00  0.00000E+00  0.00000E+00  0.00000E+00    0.20315E+02  0.19830E+02 -0.40145E+02  0.47168E+01 -0.47857E+01  0.14076E+02      982.00
  0.55587E+00  0.66191E+02    0.31250E+00  0.31250E+00 -0.62500E+00  0.00000E+00  0.00000E+00  0.00000E+00    0.20410E+02  0.19905E+02 -0.40315E+02  0.47035E+01 -0.47745E+01  0.14017E+02      982.00
  0.57871E+00  0.66362E+02    0.32500E+00  0.32500E+00 -0.65000E+00  0.00000E+00  0.00000E+00  0.00000E+00    0.20495E+02  0.19972E+02 -0.40466E+02  0.46859E+01 -0.47588E+01  0.13970E+02      982.00
  0.60157E+00  0.66514E+02    0.33750E+00  0.33750E+00 -0.67500E+00  0.00000E+00  0.00000E+00  0.00000E+00    0.20571E+02  0.20033E+02 -0.40604E+02  0.46657E+01 -0.47408E+01  0.13923E+02      982.00
  0.62447E+00  0.66661E+02    0.35000E+00  0.35000E+00 -0.70000E+00  0.00000E+00  0.00000E+00  0.00000E+00    0.20644E+02  0.20093E+02 -0.40737E+02  0.46441E+01 -0.47213E+01  0.13882E+02      982.00
  0.64738E+00  0.66795E+02    0.36250E+00  0.36250E+00 -0.72500E+00  0.00000E+00  0.00000E+00  0.00000E+00    0.20711E+02  0.20148E+02 -0.40859E+02  0.46220E+01 -0.47015E+01  0.13840E+02      982.00
  0.67032E+00  0.66927E+02    0.37500E+00  0.37500E+00 -0.75000E+00  0.00000E+00  0.00000E+00  0.00000E+00    0.20776E+02  0.20202E+02 -0.40978E+02  0.45992E+01 -0.46807E+01  0.13803E+02      982.00
  0.69328E+00  0.67044E+02    0.38750E+00  0.38750E+00 -0.77500E+00  0.00000E+00  0.00000E+00  0.00000E+00    0.20836E+02  0.20250E+02 -0.41087E+02  0.45760E+01 -0.46590E+01  0.13765E+02      982.00
  0.71626E+00  0.67146E+02    0.40000E+00  0.40000E+00 -0.80000E+00  0.00000E+00  0.00000E+00  0.00000E+00    0.20890E+02  0.20293E+02 -0.41184E+02  0.45537E+01 -0.46373E+01  0.13728E+02      982.00
  0.73926E+00  0.67252E+02    0.41250E+00  0.41250E+00 -0.82500E+00  0.00000E+00  0.00000E+00  0.00000E+00    0.20944E+02  0.20337E+02 -0.41282E+02  0.45306E+01 -0.46154E+01  0.13694E+02      982.00
  0.76228E+00  0.67348E+02    0.42500E+00  0.42500E+00 -0.85000E+00  0.00000E+00  0.00000E+00  0.00000E+00    0.20995E+02  0.20378E+02 -0.41373E+02  0.45082E+01 -0.45940E+01  0.13661E+02      982.00
  0.78532E+00  0.67432E+02    0.43750E+00  0.43750E+00 -0.87500E+00  0.00000E+00  0.00000E+00  0.00000E+00    0.21038E+02  0.20416E+02 -0.41453E+02  0.44926E+01 -0.45793E+01  0.13626E+02      982.00
  0.80837E+00  0.67515E+02    0.45000E+00  0.45000E+00 -0.90000E+00  0.00000E+00  0.00000E+00  0.00000E+00    0.21081E+02  0.20451E+02 -0.41533E+02  0.44717E+01 -0.45596E+01  0.13595E+02      982.00
  0.83144E+00  0.67590E+02    0.46250E+00  0.46250E+00 -0.92500E+00  0.00000E+00  0.00000E+00  0.00000E+00    0.21122E+02  0.20484E+02 -0.41606E+02  0.44510E+01 -0.45392E+01  0.13564E+02      982.00
  0.85452E+00  0.67659E+02    0.47500E+00  0.47500E+00 -0.95000E+00  0.00000E+00  0.00000E+00  0.00000E+00    0.21158E+02  0.20513E+02 -0.41671E+02  0.44360E+01 -0.45243E+01  0.13540E+02      982.00
  0.87762E+00  0.67723E+02    0.48750E+00  0.48750E+00 -0.97500E+00  0.00000E+00  0.00000E+00  0.00000E+00    0.21192E+02  0.20542E+02 -0.41734E+02  0.44214E+01 -0.45109E+01  0.13510E+02      982.00
  0.90073E+00  0.67789E+02    0.50000E+00  0.50000E+00 -0.10000E+01  0.00000E+00  0.00000E+00  0.00000E+00    0.21229E+02  0.20569E+02 -0.41798E+02  0.43977E+01 -0.44859E+01  0.13488E+02      982.00
