          Evm          Svm            E11          E22          E33          E23          E13          E12         SDEV11       SDEV22       SDEV33       SDEV23       SDEV13       SDEV12      TEMP
  0.00000E+00  0.65545E+02    0.00000E+00  0.00000E+00  0.00000E+00  0.00000E+00  0.00000E+00  0.00000E+00    0.23871E+02  0.18436E+02 -0.42307E+02  0.61715E+01  0.38791E+00 -0.66335E+01      982.00
  0.24205E-01  0.65564E+02    0.12500E-01  0.12500E-01 -0.25000E-01  0.00000E+00  0.00000E+00  0.00000E+00    0.24407E+02  0.17960E+02 -0.42367E+02  0.59183E+01  0.47134E+00 -0.64047E+01      982.00
  0.48437E-01  0.65585E+02    0.25000E-01  0.25000E-01 -0.50000E-01  0.00000E+00  0.00000E+00  0.00000E+00    0.24875E+02  0.17564E+02 -0.42440E+02  0.56783E+01  0.54281E+00 -0.60855E+01      982.00
  0.72703E-01  0.65516E+02    0.37500E-01  0.37500E-01 -0.75000E-01  0.00000E+00  0.00000E+00  0.00000E+00    0.25231E+02  0.17239E+02 -0.42470E+02  0.54147E+01  0.63337E+00 -0.56861E+01      982.00
  0.97012E-01  0.65447E+02    0.50000E-01  0.50000E-01 -0.10000E+00  0.00000E+00  0.00000E+00  0.00000E+00    0.25541E+02  0.16958E+02 -0.42499E+02  0.51442E+01  0.82928E+00 -0.52530E+01      982.00
  0.12136E+00  0.65462E+02    0.62500E-01  0.62500E-01 -0.12500E+00  0.00000E+00  0.00000E+00  0.00000E+00    0.25851E+02  0.16713E+02 -0.42564E+02  0.49107E+01  0.11215E+01 -0.48407E+01      982.00
  0.14575E+00  0.65562E+02    0.75000E-01  0.75000E-01 -0.15000E+00  0.00000E+00  0.00000E+00  0.00000E+00    0.26166E+02  0.16494E+02 -0.42660E+02  0.47239E+01  0.14477E+01 -0.44787E+01      982.00
  0.17015E+00  0.65726E+02    0.87500E-01  0.87500E-01 -0.17500E+00  0.00000E+00  0.00000E+00  0.00000E+00    0.26485E+02  0.16294E+02 -0.42778E+02  0.45798E+01  0.17594E+01 -0.41786E+01      982.00
  0.19455E+00  0.65940E+02    0.10000E+00  0.10000E+00 -0.20000E+00  0.00000E+00  0.00000E+00  0.00000E+00    0.26801E+02  0.16112E+02 -0.42913E+02  0.44736E+01  0.20311E+01 -0.39429E+01      982.00
  0.21896E+00  0.66190E+02    0.11250E+00  0.11250E+00 -0.22500E+00  0.00000E+00  0.00000E+00  0.00000E+00    0.27110E+02  0.15950E+02 -0.43060E+02  0.43993E+01  0.22547E+01 -0.37666E+01      982.00
  0.24335E+00  0.66468E+02    0.12500E+00  0.12500E+00 -0.25000E+00  0.00000E+00  0.00000E+00  0.00000E+00    0.27426E+02  0.15792E+02 -0.43218E+02  0.43426E+01  0.24346E+01 -0.36360E+01      982.00
  0.26774E+00  0.66759E+02    0.13750E+00  0.13750E+00 -0.27500E+00  0.00000E+00  0.00000E+00  0.00000E+00    0.27730E+02  0.15650E+02 -0.43380E+02  0.43053E+01  0.25730E+01 -0.35463E+01      982.00
  0.29210E+00  0.67060E+02    0.15000E+00  0.15000E+00 -0.30000E+00  0.00000E+00  0.00000E+00  0.00000E+00    0.28035E+02  0.15511E+02 -0.43546E+02  0.42762E+01  0.26795E+01 -0.34836E+01      982.00
  0.31645E+00  0.67360E+02    0.16250E+00  0.16250E+00 -0.32500E+00  0.00000E+00  0.00000E+00  0.00000E+00    0.28331E+02  0.15379E+02 -0.43710E+02  0.42550E+01  0.27589E+01 -0.34425E+01      982.00
  0.34079E+00  0.67652E+02    0.17500E+00  0.17500E+00 -0.35000E+00  0.00000E+00  0.00000E+00  0.00000E+00    0.28607E+02  0.15263E+02 -0.43870E+02  0.42461E+01  0.28153E+01 -0.34215E+01      982.00
  0.36511E+00  0.67933E+02    0.18750E+00  0.18750E+00 -0.37500E+00  0.00000E+00  0.00000E+00  0.00000E+00    0.28875E+02  0.15148E+02 -0.44022E+02  0.42361E+01  0.28563E+01 -0.34083E+01      982.00
  0.38941E+00  0.68201E+02    0.20000E+00  0.20000E+00 -0.40000E+00  0.00000E+00  0.00000E+00  0.00000E+00    0.29121E+02  0.15047E+02 -0.44167E+02  0.42364E+01  0.28828E+01 -0.34071E+01      982.00
  0.41369E+00  0.68457E+02    0.21250E+00  0.21250E+00 -0.42500E+00  0.00000E+00  0.00000E+00  0.00000E+00    0.29357E+02  0.14949E+02 -0.44306E+02  0.42346E+01  0.28999E+01 -0.34090E+01      982.00
  0.43796E+00  0.68693E+02    0.22500E+00  0.22500E+00 -0.45000E+00  0.00000E+00  0.00000E+00  0.00000E+00    0.29571E+02  0.14861E+02 -0.44433E+02  0.42401E+01  0.29086E+01 -0.34173E+01      982.00
  0.46222E+00  0.68905E+02    0.23750E+00  0.23750E+00 -0.47500E+00  0.00000E+00  0.00000E+00  0.00000E+00    0.29774E+02  0.14771E+02 -0.44545E+02  0.42378E+01  0.29136E+01 -0.34243E+01      982.00
  0.48646E+00  0.69108E+02    0.25000E+00  0.25000E+00 -0.50000E+00  0.00000E+00  0.00000E+00  0.00000E+00    0.29959E+02  0.14694E+02 -0.44653E+02  0.42461E+01  0.29121E+01 -0.34367E+01      982.00
  0.51069E+00  0.69301E+02    0.26250E+00  0.26250E+00 -0.52500E+00  0.00000E+00  0.00000E+00  0.00000E+00    0.30142E+02  0.14612E+02 -0.44754E+02  0.42487E+01  0.29100E+01 -0.34475E+01      982.00
  0.53491E+00  0.69465E+02    0.27500E+00  0.27500E+00 -0.55000E+00  0.00000E+00  0.00000E+00  0.00000E+00    0.30291E+02  0.14550E+02 -0.44841E+02  0.42559E+01  0.29011E+01 -0.34613E+01      982.00
  0.55912E+00  0.69623E+02    0.28750E+00  0.28750E+00 -0.57500E+00  0.00000E+00  0.00000E+00  0.00000E+00    0.30438E+02  0.14484E+02 -0.44923E+02  0.42659E+01  0.28917E+01 -0.34757E+01      982.00
  0.58331E+00  0.69753E+02    0.30000E+00  0.30000E+00 -0.60000E+00  0.00000E+00  0.00000E+00  0.00000E+00    0.30572E+02  0.14416E+02 -0.44988E+02  0.42640E+01  0.28851E+01 -0.34872E+01      982.00
  0.60750E+00  0.69888E+02    0.31250E+00  0.31250E+00 -0.62500E+00  0.00000E+00  0.00000E+00  0.00000E+00    0.30699E+02  0.14357E+02 -0.45056E+02  0.42742E+01  0.28731E+01 -0.35016E+01      982.00
  0.63167E+00  0.70010E+02    0.32500E+00  0.32500E+00 -0.65000E+00  0.00000E+00  0.00000E+00  0.00000E+00    0.30817E+02  0.14301E+02 -0.45118E+02  0.42839E+01  0.28603E+01 -0.35158E+01      982.00
  0.65584E+00  0.70113E+02    0.33750E+00  0.33750E+00 -0.67500E+00  0.00000E+00  0.00000E+00  0.00000E+00    0.30926E+02  0.14242E+02 -0.45168E+02  0.42825E+01  0.28499E+01 -0.35266E+01      982.00
  0.68000E+00  0.70210E+02    0.35000E+00  0.35000E+00 -0.70000E+00  0.00000E+00  0.00000E+00  0.00000E+00    0.31025E+02  0.14190E+02 -0.45215E+02  0.42908E+01  0.28363E+01 -0.35395E+01      982.00
  0.70415E+00  0.70304E+02    0.36250E+00  0.36250E+00 -0.72500E+00  0.00000E+00  0.00000E+00  0.00000E+00    0.31120E+02  0.14141E+02 -0.45261E+02  0.42998E+01  0.28217E+01 -0.35534E+01      982.00
  0.72829E+00  0.70390E+02    0.37500E+00  0.37500E+00 -0.75000E+00  0.00000E+00  0.00000E+00  0.00000E+00    0.31217E+02  0.14084E+02 -0.45301E+02  0.43017E+01  0.28053E+01 -0.35641E+01      982.00
  0.75242E+00  0.70470E+02    0.38750E+00  0.38750E+00 -0.77500E+00  0.00000E+00  0.00000E+00  0.00000E+00    0.31301E+02  0.14038E+02 -0.45338E+02  0.43095E+01  0.27898E+01 -0.35781E+01      982.00
  0.77655E+00  0.70540E+02    0.40000E+00  0.40000E+00 -0.80000E+00  0.00000E+00  0.00000E+00  0.00000E+00    0.31376E+02  0.13994E+02 -0.45371E+02  0.43171E+01  0.27745E+01 -0.35916E+01      982.00
  0.80067E+00  0.70605E+02    0.41250E+00  0.41250E+00 -0.82500E+00  0.00000E+00  0.00000E+00  0.00000E+00    0.31448E+02  0.13952E+02 -0.45400E+02  0.43245E+01  0.27592E+01 -0.36051E+01      982.00
  0.82478E+00  0.70670E+02    0.42500E+00  0.42500E+00 -0.85000E+00  0.00000E+00  0.00000E+00  0.00000E+00    0.31535E+02  0.13890E+02 -0.45425E+02  0.43301E+01  0.27352E+01 -0.36200E+01      982.00
  0.84889E+00  0.70723E+02    0.43750E+00  0.43750E+00 -0.87500E+00  0.00000E+00  0.00000E+00  0.00000E+00    0.31598E+02  0.13850E+02 -0.45447E+02  0.43351E+01  0.27193E+01 -0.36337E+01      982.00
  0.87298E+00  0.70771E+02    0.45000E+00  0.45000E+00 -0.90000E+00  0.00000E+00  0.00000E+00  0.00000E+00    0.31655E+02  0.13812E+02 -0.45467E+02  0.43414E+01  0.27043E+01 -0.36471E+01      982.00
  0.89708E+00  0.70767E+02    0.46250E+00  0.46250E+00 -0.92500E+00  0.00000E+00  0.00000E+00  0.00000E+00    0.31672E+02  0.13788E+02 -0.45460E+02  0.43374E+01  0.26817E+01 -0.36618E+01      982.00
  0.92117E+00  0.70755E+02    0.47500E+00  0.47500E+00 -0.95000E+00  0.00000E+00  0.00000E+00  0.00000E+00    0.31690E+02  0.13756E+02 -0.45446E+02  0.43297E+01  0.26593E+01 -0.36712E+01      982.00
  0.94525E+00  0.70743E+02    0.48750E+00  0.48750E+00 -0.97500E+00  0.00000E+00  0.00000E+00  0.00000E+00    0.31712E+02  0.13720E+02 -0.45432E+02  0.43231E+01  0.26374E+01 -0.36824E+01      982.00
  0.96934E+00  0.70731E+02    0.50000E+00  0.50000E+00 -0.10000E+01  0.00000E+00  0.00000E+00  0.00000E+00    0.31733E+02  0.13685E+02 -0.45417E+02  0.43161E+01  0.26164E+01 -0.36934E+01      982.00
