          Evm          Svm            E11          E22          E33          E23          E13          E12         SDEV11       SDEV22       SDEV33       SDEV23       SDEV13       SDEV12      TEMP
  0.00000E+00  0.62980E+02    0.00000E+00  0.00000E+00  0.00000E+00  0.00000E+00  0.00000E+00  0.00000E+00    0.20853E+02  0.19111E+02 -0.39964E+02  0.40341E+01 -0.34066E+01  0.97796E+01      982.00
  0.23796E-01  0.62950E+02    0.12500E-01  0.12500E-01 -0.25000E-01  0.00000E+00  0.00000E+00  0.00000E+00    0.21015E+02  0.18933E+02 -0.39948E+02  0.38859E+01 -0.34285E+01  0.98037E+01      982.00
  0.47593E-01  0.62960E+02    0.25000E-01  0.25000E-01 -0.50000E-01  0.00000E+00  0.00000E+00  0.00000E+00    0.21115E+02  0.18834E+02 -0.39949E+02  0.37602E+01 -0.34426E+01  0.98529E+01      982.00
  0.71388E-01  0.63008E+02    0.37500E-01  0.37500E-01 -0.75000E-01  0.00000E+00  0.00000E+00  0.00000E+00    0.21214E+02  0.18755E+02 -0.39969E+02  0.36545E+01 -0.34464E+01  0.99232E+01      982.00
  0.95175E-01  0.63096E+02    0.50000E-01  0.50000E-01 -0.10000E+00  0.00000E+00  0.00000E+00  0.00000E+00    0.21305E+02  0.18703E+02 -0.40008E+02  0.35668E+01 -0.34442E+01  0.10015E+02      982.00
  0.11895E+00  0.63215E+02    0.62500E-01  0.62500E-01 -0.12500E+00  0.00000E+00  0.00000E+00  0.00000E+00    0.21400E+02  0.18661E+02 -0.40062E+02  0.34923E+01 -0.34363E+01  0.10123E+02      982.00
  0.14272E+00  0.63374E+02    0.75000E-01  0.75000E-01 -0.15000E+00  0.00000E+00  0.00000E+00  0.00000E+00    0.21493E+02  0.18644E+02 -0.40137E+02  0.34331E+01 -0.34303E+01  0.10245E+02      982.00
  0.16647E+00  0.63565E+02    0.87500E-01  0.87500E-01 -0.17500E+00  0.00000E+00  0.00000E+00  0.00000E+00    0.21587E+02  0.18642E+02 -0.40229E+02  0.33861E+01 -0.34262E+01  0.10378E+02      982.00
  0.19020E+00  0.63766E+02    0.10000E+00  0.10000E+00 -0.20000E+00  0.00000E+00  0.00000E+00  0.00000E+00    0.21680E+02  0.18644E+02 -0.40324E+02  0.33448E+01 -0.34188E+01  0.10521E+02      982.00
  0.21392E+00  0.64003E+02    0.11250E+00  0.11250E+00 -0.22500E+00  0.00000E+00  0.00000E+00  0.00000E+00    0.21774E+02  0.18668E+02 -0.40442E+02  0.33184E+01 -0.34210E+01  0.10662E+02      982.00
  0.23761E+00  0.64270E+02    0.12500E+00  0.12500E+00 -0.25000E+00  0.00000E+00  0.00000E+00  0.00000E+00    0.21871E+02  0.18705E+02 -0.40575E+02  0.33016E+01 -0.34284E+01  0.10815E+02      982.00
  0.26128E+00  0.64536E+02    0.13750E+00  0.13750E+00 -0.27500E+00  0.00000E+00  0.00000E+00  0.00000E+00    0.21963E+02  0.18745E+02 -0.40708E+02  0.32870E+01 -0.34336E+01  0.10966E+02      982.00
  0.28494E+00  0.64808E+02    0.15000E+00  0.15000E+00 -0.30000E+00  0.00000E+00  0.00000E+00  0.00000E+00    0.22050E+02  0.18800E+02 -0.40850E+02  0.32830E+01 -0.34462E+01  0.11098E+02      982.00
  0.30858E+00  0.65061E+02    0.16250E+00  0.16250E+00 -0.32500E+00  0.00000E+00  0.00000E+00  0.00000E+00    0.22127E+02  0.18855E+02 -0.40981E+02  0.32858E+01 -0.34621E+01  0.11220E+02      982.00
  0.33220E+00  0.65291E+02    0.17500E+00  0.17500E+00 -0.35000E+00  0.00000E+00  0.00000E+00  0.00000E+00    0.22192E+02  0.18912E+02 -0.41104E+02  0.32903E+01 -0.34768E+01  0.11325E+02      982.00
  0.35581E+00  0.65548E+02    0.18750E+00  0.18750E+00 -0.37500E+00  0.00000E+00  0.00000E+00  0.00000E+00    0.22259E+02  0.18978E+02 -0.41237E+02  0.32983E+01 -0.34937E+01  0.11447E+02      982.00
  0.37940E+00  0.65828E+02    0.20000E+00  0.20000E+00 -0.40000E+00  0.00000E+00  0.00000E+00  0.00000E+00    0.22328E+02  0.19058E+02 -0.41386E+02  0.33114E+01 -0.35147E+01  0.11570E+02      982.00
  0.40297E+00  0.66049E+02    0.21250E+00  0.21250E+00 -0.42500E+00  0.00000E+00  0.00000E+00  0.00000E+00    0.22378E+02  0.19128E+02 -0.41506E+02  0.33252E+01 -0.35328E+01  0.11657E+02      982.00
  0.42654E+00  0.66256E+02    0.22500E+00  0.22500E+00 -0.45000E+00  0.00000E+00  0.00000E+00  0.00000E+00    0.22422E+02  0.19198E+02 -0.41620E+02  0.33409E+01 -0.35506E+01  0.11737E+02      982.00
  0.45010E+00  0.66445E+02    0.23750E+00  0.23750E+00 -0.47500E+00  0.00000E+00  0.00000E+00  0.00000E+00    0.22459E+02  0.19266E+02 -0.41724E+02  0.33553E+01 -0.35658E+01  0.11808E+02      982.00
  0.47364E+00  0.66624E+02    0.25000E+00  0.25000E+00 -0.50000E+00  0.00000E+00  0.00000E+00  0.00000E+00    0.22491E+02  0.19332E+02 -0.41823E+02  0.33717E+01 -0.35811E+01  0.11874E+02      982.00
  0.49718E+00  0.66797E+02    0.26250E+00  0.26250E+00 -0.52500E+00  0.00000E+00  0.00000E+00  0.00000E+00    0.22529E+02  0.19393E+02 -0.41922E+02  0.33882E+01 -0.35943E+01  0.11930E+02      982.00
  0.52072E+00  0.66937E+02    0.27500E+00  0.27500E+00 -0.55000E+00  0.00000E+00  0.00000E+00  0.00000E+00    0.22557E+02  0.19444E+02 -0.42000E+02  0.34034E+01 -0.36054E+01  0.11979E+02      982.00
  0.54425E+00  0.67062E+02    0.28750E+00  0.28750E+00 -0.57500E+00  0.00000E+00  0.00000E+00  0.00000E+00    0.22566E+02  0.19501E+02 -0.42067E+02  0.34203E+01 -0.36179E+01  0.12030E+02      982.00
  0.56777E+00  0.67200E+02    0.30000E+00  0.30000E+00 -0.60000E+00  0.00000E+00  0.00000E+00  0.00000E+00    0.22584E+02  0.19560E+02 -0.42144E+02  0.34374E+01 -0.36301E+01  0.12080E+02      982.00
  0.59129E+00  0.67325E+02    0.31250E+00  0.31250E+00 -0.62500E+00  0.00000E+00  0.00000E+00  0.00000E+00    0.22598E+02  0.19616E+02 -0.42213E+02  0.34537E+01 -0.36408E+01  0.12124E+02      982.00
  0.61480E+00  0.67432E+02    0.32500E+00  0.32500E+00 -0.65000E+00  0.00000E+00  0.00000E+00  0.00000E+00    0.22607E+02  0.19666E+02 -0.42273E+02  0.34693E+01 -0.36500E+01  0.12162E+02      982.00
  0.63831E+00  0.67532E+02    0.33750E+00  0.33750E+00 -0.67500E+00  0.00000E+00  0.00000E+00  0.00000E+00    0.22606E+02  0.19721E+02 -0.42327E+02  0.34885E+01 -0.36617E+01  0.12201E+02      982.00
  0.66182E+00  0.67631E+02    0.35000E+00  0.35000E+00 -0.70000E+00  0.00000E+00  0.00000E+00  0.00000E+00    0.22611E+02  0.19770E+02 -0.42382E+02  0.35040E+01 -0.36700E+01  0.12236E+02      982.00
  0.68532E+00  0.67718E+02    0.36250E+00  0.36250E+00 -0.72500E+00  0.00000E+00  0.00000E+00  0.00000E+00    0.22615E+02  0.19815E+02 -0.42429E+02  0.35190E+01 -0.36776E+01  0.12268E+02      982.00
  0.70881E+00  0.67798E+02    0.37500E+00  0.37500E+00 -0.75000E+00  0.00000E+00  0.00000E+00  0.00000E+00    0.22617E+02  0.19856E+02 -0.42473E+02  0.35338E+01 -0.36848E+01  0.12298E+02      982.00
  0.73230E+00  0.67880E+02    0.38750E+00  0.38750E+00 -0.77500E+00  0.00000E+00  0.00000E+00  0.00000E+00    0.22611E+02  0.19907E+02 -0.42517E+02  0.35525E+01 -0.36937E+01  0.12329E+02      982.00
  0.75579E+00  0.67945E+02    0.40000E+00  0.40000E+00 -0.80000E+00  0.00000E+00  0.00000E+00  0.00000E+00    0.22607E+02  0.19945E+02 -0.42553E+02  0.35671E+01 -0.36998E+01  0.12354E+02      982.00
  0.77928E+00  0.68005E+02    0.41250E+00  0.41250E+00 -0.82500E+00  0.00000E+00  0.00000E+00  0.00000E+00    0.22605E+02  0.19979E+02 -0.42584E+02  0.35815E+01 -0.37060E+01  0.12377E+02      982.00
  0.80276E+00  0.68059E+02    0.42500E+00  0.42500E+00 -0.85000E+00  0.00000E+00  0.00000E+00  0.00000E+00    0.22603E+02  0.20010E+02 -0.42613E+02  0.35956E+01 -0.37121E+01  0.12399E+02      982.00
  0.82624E+00  0.68110E+02    0.43750E+00  0.43750E+00 -0.87500E+00  0.00000E+00  0.00000E+00  0.00000E+00    0.22600E+02  0.20039E+02 -0.42639E+02  0.36095E+01 -0.37182E+01  0.12420E+02      982.00
  0.84972E+00  0.68156E+02    0.45000E+00  0.45000E+00 -0.90000E+00  0.00000E+00  0.00000E+00  0.00000E+00    0.22596E+02  0.20066E+02 -0.42662E+02  0.36233E+01 -0.37243E+01  0.12440E+02      982.00
  0.87319E+00  0.68198E+02    0.46250E+00  0.46250E+00 -0.92500E+00  0.00000E+00  0.00000E+00  0.00000E+00    0.22592E+02  0.20091E+02 -0.42683E+02  0.36370E+01 -0.37305E+01  0.12459E+02      982.00
  0.89666E+00  0.68238E+02    0.47500E+00  0.47500E+00 -0.95000E+00  0.00000E+00  0.00000E+00  0.00000E+00    0.22588E+02  0.20115E+02 -0.42703E+02  0.36506E+01 -0.37366E+01  0.12477E+02      982.00
  0.92013E+00  0.68275E+02    0.48750E+00  0.48750E+00 -0.97500E+00  0.00000E+00  0.00000E+00  0.00000E+00    0.22573E+02  0.20146E+02 -0.42719E+02  0.36709E+01 -0.37459E+01  0.12497E+02      982.00
  0.94359E+00  0.68265E+02    0.50000E+00  0.50000E+00 -0.10000E+01  0.00000E+00  0.00000E+00  0.00000E+00    0.22577E+02  0.20138E+02 -0.42714E+02  0.36584E+01 -0.37310E+01  0.12497E+02      982.00
