          Evm          Svm            E11          E22          E33          E23          E13          E12         SDEV11       SDEV22       SDEV33       SDEV23       SDEV13       SDEV12      TEMP
  0.00000E+00  0.64340E+02    0.00000E+00  0.00000E+00  0.00000E+00  0.00000E+00  0.00000E+00  0.00000E+00    0.15639E+02  0.25683E+02 -0.41322E+02  0.14409E+01 -0.80543E+01 -0.26644E+01      982.00
  0.24084E-01  0.64113E+02    0.12500E-01  0.12500E-01 -0.25000E-01  0.00000E+00  0.00000E+00  0.00000E+00    0.15317E+02  0.25858E+02 -0.41174E+02  0.14933E+01 -0.78870E+01 -0.25414E+01      982.00
  0.48167E-01  0.63936E+02    0.25000E-01  0.25000E-01 -0.50000E-01  0.00000E+00  0.00000E+00  0.00000E+00    0.15003E+02  0.26054E+02 -0.41057E+02  0.15249E+01 -0.77311E+01 -0.23982E+01      982.00
  0.72248E-01  0.63823E+02    0.37500E-01  0.37500E-01 -0.75000E-01  0.00000E+00  0.00000E+00  0.00000E+00    0.14688E+02  0.26292E+02 -0.40980E+02  0.15269E+01 -0.75645E+01 -0.22507E+01      982.00
  0.96326E-01  0.63762E+02    0.50000E-01  0.50000E-01 -0.10000E+00  0.00000E+00  0.00000E+00  0.00000E+00    0.14380E+02  0.26559E+02 -0.40939E+02  0.14955E+01 -0.73766E+01 -0.21043E+01      982.00
  0.12040E+00  0.63734E+02    0.62500E-01  0.62500E-01 -0.12500E+00  0.00000E+00  0.00000E+00  0.00000E+00    0.14089E+02  0.26835E+02 -0.40924E+02  0.14258E+01 -0.71670E+01 -0.19683E+01      982.00
  0.14448E+00  0.63749E+02    0.75000E-01  0.75000E-01 -0.15000E+00  0.00000E+00  0.00000E+00  0.00000E+00    0.13827E+02  0.27114E+02 -0.40941E+02  0.13179E+01 -0.69441E+01 -0.18500E+01      982.00
  0.16857E+00  0.63811E+02    0.87500E-01  0.87500E-01 -0.17500E+00  0.00000E+00  0.00000E+00  0.00000E+00    0.13602E+02  0.27384E+02 -0.40986E+02  0.11879E+01 -0.67381E+01 -0.17548E+01      982.00
  0.19265E+00  0.63912E+02    0.10000E+00  0.10000E+00 -0.20000E+00  0.00000E+00  0.00000E+00  0.00000E+00    0.13423E+02  0.27638E+02 -0.41061E+02  0.10354E+01 -0.65341E+01 -0.16768E+01      982.00
  0.21674E+00  0.64067E+02    0.11250E+00  0.11250E+00 -0.22500E+00  0.00000E+00  0.00000E+00  0.00000E+00    0.13290E+02  0.27878E+02 -0.41168E+02  0.88379E+00 -0.63625E+01 -0.16175E+01      982.00
  0.24084E+00  0.64274E+02    0.12500E+00  0.12500E+00 -0.25000E+00  0.00000E+00  0.00000E+00  0.00000E+00    0.13202E+02  0.28106E+02 -0.41308E+02  0.73732E+00 -0.62200E+01 -0.15754E+01      982.00
  0.26494E+00  0.64536E+02    0.13750E+00  0.13750E+00 -0.27500E+00  0.00000E+00  0.00000E+00  0.00000E+00    0.13146E+02  0.28331E+02 -0.41478E+02  0.62509E+00 -0.61304E+01 -0.15489E+01      982.00
  0.28904E+00  0.64838E+02    0.15000E+00  0.15000E+00 -0.30000E+00  0.00000E+00  0.00000E+00  0.00000E+00    0.13116E+02  0.28552E+02 -0.41668E+02  0.53786E+00 -0.60760E+01 -0.15336E+01      982.00
  0.31314E+00  0.65133E+02    0.16250E+00  0.16250E+00 -0.32500E+00  0.00000E+00  0.00000E+00  0.00000E+00    0.13104E+02  0.28750E+02 -0.41855E+02  0.46901E+00 -0.60405E+01 -0.15255E+01      982.00
  0.33724E+00  0.65473E+02    0.17500E+00  0.17500E+00 -0.35000E+00  0.00000E+00  0.00000E+00  0.00000E+00    0.13107E+02  0.28959E+02 -0.42065E+02  0.42402E+00 -0.60382E+01 -0.15181E+01      982.00
  0.36133E+00  0.65799E+02    0.18750E+00  0.18750E+00 -0.37500E+00  0.00000E+00  0.00000E+00  0.00000E+00    0.13116E+02  0.29152E+02 -0.42268E+02  0.38901E+00 -0.60430E+01 -0.15106E+01      982.00
  0.38542E+00  0.66110E+02    0.20000E+00  0.20000E+00 -0.40000E+00  0.00000E+00  0.00000E+00  0.00000E+00    0.13124E+02  0.29333E+02 -0.42458E+02  0.36799E+00 -0.60651E+01 -0.14992E+01      982.00
  0.40951E+00  0.66438E+02    0.21250E+00  0.21250E+00 -0.42500E+00  0.00000E+00  0.00000E+00  0.00000E+00    0.13130E+02  0.29525E+02 -0.42655E+02  0.35183E+00 -0.61036E+01 -0.14773E+01      982.00
  0.43358E+00  0.66716E+02    0.22500E+00  0.22500E+00 -0.45000E+00  0.00000E+00  0.00000E+00  0.00000E+00    0.13150E+02  0.29674E+02 -0.42823E+02  0.36244E+00 -0.61451E+01 -0.14544E+01      982.00
  0.45765E+00  0.66972E+02    0.23750E+00  0.23750E+00 -0.47500E+00  0.00000E+00  0.00000E+00  0.00000E+00    0.13168E+02  0.29810E+02 -0.42978E+02  0.38332E+00 -0.61915E+01 -0.14272E+01      982.00
  0.48172E+00  0.67206E+02    0.25000E+00  0.25000E+00 -0.50000E+00  0.00000E+00  0.00000E+00  0.00000E+00    0.13185E+02  0.29933E+02 -0.43118E+02  0.40891E+00 -0.62388E+01 -0.13960E+01      982.00
  0.50578E+00  0.67388E+02    0.26250E+00  0.26250E+00 -0.52500E+00  0.00000E+00  0.00000E+00  0.00000E+00    0.13203E+02  0.30025E+02 -0.43228E+02  0.42937E+00 -0.62763E+01 -0.13746E+01      982.00
  0.52983E+00  0.67585E+02    0.27500E+00  0.27500E+00 -0.55000E+00  0.00000E+00  0.00000E+00  0.00000E+00    0.13213E+02  0.30132E+02 -0.43345E+02  0.45527E+00 -0.63187E+01 -0.13399E+01      982.00
  0.55388E+00  0.67764E+02    0.28750E+00  0.28750E+00 -0.57500E+00  0.00000E+00  0.00000E+00  0.00000E+00    0.13222E+02  0.30228E+02 -0.43450E+02  0.48417E+00 -0.63623E+01 -0.13014E+01      982.00
  0.57793E+00  0.67918E+02    0.30000E+00  0.30000E+00 -0.60000E+00  0.00000E+00  0.00000E+00  0.00000E+00    0.13226E+02  0.30315E+02 -0.43541E+02  0.50475E+00 -0.63934E+01 -0.12710E+01      982.00
  0.60197E+00  0.68059E+02    0.31250E+00  0.31250E+00 -0.62500E+00  0.00000E+00  0.00000E+00  0.00000E+00    0.13229E+02  0.30393E+02 -0.43621E+02  0.53675E+00 -0.64370E+01 -0.12286E+01      982.00
  0.62600E+00  0.68194E+02    0.32500E+00  0.32500E+00 -0.65000E+00  0.00000E+00  0.00000E+00  0.00000E+00    0.13231E+02  0.30468E+02 -0.43698E+02  0.57037E+00 -0.64797E+01 -0.11835E+01      982.00
  0.65003E+00  0.68317E+02    0.33750E+00  0.33750E+00 -0.67500E+00  0.00000E+00  0.00000E+00  0.00000E+00    0.13230E+02  0.30537E+02 -0.43767E+02  0.60558E+00 -0.65219E+01 -0.11365E+01      982.00
  0.67406E+00  0.68428E+02    0.35000E+00  0.35000E+00 -0.70000E+00  0.00000E+00  0.00000E+00  0.00000E+00    0.13228E+02  0.30600E+02 -0.43828E+02  0.64215E+00 -0.65636E+01 -0.10877E+01      982.00
  0.69808E+00  0.68528E+02    0.36250E+00  0.36250E+00 -0.72500E+00  0.00000E+00  0.00000E+00  0.00000E+00    0.13225E+02  0.30657E+02 -0.43882E+02  0.67991E+00 -0.66047E+01 -0.10373E+01      982.00
  0.72209E+00  0.68619E+02    0.37500E+00  0.37500E+00 -0.75000E+00  0.00000E+00  0.00000E+00  0.00000E+00    0.13220E+02  0.30710E+02 -0.43930E+02  0.71870E+00 -0.66451E+01 -0.98529E+00      982.00
  0.74610E+00  0.68701E+02    0.38750E+00  0.38750E+00 -0.77500E+00  0.00000E+00  0.00000E+00  0.00000E+00    0.13213E+02  0.30759E+02 -0.43973E+02  0.75837E+00 -0.66849E+01 -0.93188E+00      982.00
  0.77010E+00  0.68779E+02    0.40000E+00  0.40000E+00 -0.80000E+00  0.00000E+00  0.00000E+00  0.00000E+00    0.13199E+02  0.30814E+02 -0.44012E+02  0.78916E+00 -0.67153E+01 -0.87909E+00      982.00
  0.79410E+00  0.68846E+02    0.41250E+00  0.41250E+00 -0.82500E+00  0.00000E+00  0.00000E+00  0.00000E+00    0.13190E+02  0.30855E+02 -0.44045E+02  0.82907E+00 -0.67530E+01 -0.82301E+00      982.00
  0.81809E+00  0.68907E+02    0.42500E+00  0.42500E+00 -0.85000E+00  0.00000E+00  0.00000E+00  0.00000E+00    0.13180E+02  0.30893E+02 -0.44073E+02  0.87027E+00 -0.67907E+01 -0.76555E+00      982.00
  0.84207E+00  0.68883E+02    0.43750E+00  0.43750E+00 -0.87500E+00  0.00000E+00  0.00000E+00  0.00000E+00    0.13158E+02  0.30899E+02 -0.44057E+02  0.90631E+00 -0.67694E+01 -0.71808E+00      982.00
  0.86606E+00  0.68863E+02    0.45000E+00  0.45000E+00 -0.90000E+00  0.00000E+00  0.00000E+00  0.00000E+00    0.13132E+02  0.30907E+02 -0.44040E+02  0.94062E+00 -0.67647E+01 -0.66285E+00      982.00
  0.89004E+00  0.68843E+02    0.46250E+00  0.46250E+00 -0.92500E+00  0.00000E+00  0.00000E+00  0.00000E+00    0.13102E+02  0.30919E+02 -0.44021E+02  0.96618E+00 -0.67641E+01 -0.60535E+00      982.00
  0.91402E+00  0.68825E+02    0.47500E+00  0.47500E+00 -0.95000E+00  0.00000E+00  0.00000E+00  0.00000E+00    0.13079E+02  0.30926E+02 -0.44004E+02  0.99857E+00 -0.67629E+01 -0.54825E+00      982.00
  0.93799E+00  0.68807E+02    0.48750E+00  0.48750E+00 -0.97500E+00  0.00000E+00  0.00000E+00  0.00000E+00    0.13056E+02  0.30932E+02 -0.43988E+02  0.10320E+01 -0.67620E+01 -0.49020E+00      982.00
  0.96197E+00  0.68789E+02    0.50000E+00  0.50000E+00 -0.10000E+01  0.00000E+00  0.00000E+00  0.00000E+00    0.13034E+02  0.30938E+02 -0.43972E+02  0.10658E+01 -0.67615E+01 -0.43147E+00      982.00
