          Evm          Svm            E11          E22          E33          E23          E13          E12         SDEV11       SDEV22       SDEV33       SDEV23       SDEV13       SDEV12      TEMP
  0.00000E+00  0.61385E+02    0.00000E+00  0.00000E+00  0.00000E+00  0.00000E+00  0.00000E+00  0.00000E+00    0.20470E+02  0.17543E+02 -0.38014E+02 -0.41525E+01  0.50541E+01  0.11284E+02      982.00
  0.23222E-01  0.61556E+02    0.12500E-01  0.12500E-01 -0.25000E-01  0.00000E+00  0.00000E+00  0.00000E+00    0.20324E+02  0.17710E+02 -0.38035E+02 -0.41691E+01  0.49254E+01  0.11607E+02      982.00
  0.46393E-01  0.61727E+02    0.25000E-01  0.25000E-01 -0.50000E-01  0.00000E+00  0.00000E+00  0.00000E+00    0.20187E+02  0.17859E+02 -0.38046E+02 -0.41869E+01  0.48333E+01  0.11926E+02      982.00
  0.69506E-01  0.61825E+02    0.37500E-01  0.37500E-01 -0.75000E-01  0.00000E+00  0.00000E+00  0.00000E+00    0.20048E+02  0.17978E+02 -0.38027E+02 -0.41797E+01  0.47310E+01  0.12192E+02      982.00
  0.92572E-01  0.61876E+02    0.50000E-01  0.50000E-01 -0.10000E+00  0.00000E+00  0.00000E+00  0.00000E+00    0.19940E+02  0.18064E+02 -0.38004E+02 -0.41042E+01  0.45847E+01  0.12419E+02      982.00
  0.11560E+00  0.61931E+02    0.62500E-01  0.62500E-01 -0.12500E+00  0.00000E+00  0.00000E+00  0.00000E+00    0.19861E+02  0.18141E+02 -0.38002E+02 -0.39549E+01  0.43751E+01  0.12644E+02      982.00
  0.13861E+00  0.62014E+02    0.75000E-01  0.75000E-01 -0.15000E+00  0.00000E+00  0.00000E+00  0.00000E+00    0.19816E+02  0.18213E+02 -0.38029E+02 -0.37421E+01  0.41173E+01  0.12870E+02      982.00
  0.16161E+00  0.62121E+02    0.87500E-01  0.87500E-01 -0.17500E+00  0.00000E+00  0.00000E+00  0.00000E+00    0.19789E+02  0.18287E+02 -0.38075E+02 -0.34915E+01  0.38286E+01  0.13101E+02      982.00
  0.18460E+00  0.62257E+02    0.10000E+00  0.10000E+00 -0.20000E+00  0.00000E+00  0.00000E+00  0.00000E+00    0.19771E+02  0.18365E+02 -0.38137E+02 -0.32271E+01  0.35288E+01  0.13334E+02      982.00
  0.20757E+00  0.62417E+02    0.11250E+00  0.11250E+00 -0.22500E+00  0.00000E+00  0.00000E+00  0.00000E+00    0.19760E+02  0.18448E+02 -0.38208E+02 -0.29695E+01  0.32377E+01  0.13564E+02      982.00
  0.23052E+00  0.62601E+02    0.12500E+00  0.12500E+00 -0.25000E+00  0.00000E+00  0.00000E+00  0.00000E+00    0.19753E+02  0.18534E+02 -0.38287E+02 -0.27323E+01  0.29688E+01  0.13792E+02      982.00
  0.25346E+00  0.62804E+02    0.13750E+00  0.13750E+00 -0.27500E+00  0.00000E+00  0.00000E+00  0.00000E+00    0.19745E+02  0.18627E+02 -0.38372E+02 -0.25221E+01  0.27234E+01  0.14014E+02      982.00
  0.27637E+00  0.63023E+02    0.15000E+00  0.15000E+00 -0.30000E+00  0.00000E+00  0.00000E+00  0.00000E+00    0.19744E+02  0.18713E+02 -0.38457E+02 -0.23421E+01  0.25148E+01  0.14237E+02      982.00
  0.29925E+00  0.63251E+02    0.16250E+00  0.16250E+00 -0.32500E+00  0.00000E+00  0.00000E+00  0.00000E+00    0.19745E+02  0.18796E+02 -0.38542E+02 -0.21893E+01  0.23353E+01  0.14458E+02      982.00
  0.32210E+00  0.63485E+02    0.17500E+00  0.17500E+00 -0.35000E+00  0.00000E+00  0.00000E+00  0.00000E+00    0.19747E+02  0.18877E+02 -0.38625E+02 -0.20614E+01  0.21818E+01  0.14676E+02      982.00
  0.34492E+00  0.63722E+02    0.18750E+00  0.18750E+00 -0.37500E+00  0.00000E+00  0.00000E+00  0.00000E+00    0.19749E+02  0.18956E+02 -0.38705E+02 -0.19551E+01  0.20513E+01  0.14891E+02      982.00
  0.36769E+00  0.63953E+02    0.20000E+00  0.20000E+00 -0.40000E+00  0.00000E+00  0.00000E+00  0.00000E+00    0.19745E+02  0.19036E+02 -0.38781E+02 -0.18705E+01  0.19397E+01  0.15099E+02      982.00
  0.39043E+00  0.64184E+02    0.21250E+00  0.21250E+00 -0.42500E+00  0.00000E+00  0.00000E+00  0.00000E+00    0.19746E+02  0.19107E+02 -0.38854E+02 -0.17991E+01  0.18463E+01  0.15305E+02      982.00
  0.41314E+00  0.64408E+02    0.22500E+00  0.22500E+00 -0.45000E+00  0.00000E+00  0.00000E+00  0.00000E+00    0.19747E+02  0.19175E+02 -0.38922E+02 -0.17413E+01  0.17678E+01  0.15505E+02      982.00
  0.43580E+00  0.64623E+02    0.23750E+00  0.23750E+00 -0.47500E+00  0.00000E+00  0.00000E+00  0.00000E+00    0.19740E+02  0.19246E+02 -0.38986E+02 -0.16971E+01  0.16987E+01  0.15693E+02      982.00
  0.45842E+00  0.64830E+02    0.25000E+00  0.25000E+00 -0.50000E+00  0.00000E+00  0.00000E+00  0.00000E+00    0.19739E+02  0.19306E+02 -0.39045E+02 -0.16609E+01  0.16437E+01  0.15877E+02      982.00
  0.48100E+00  0.65027E+02    0.26250E+00  0.26250E+00 -0.52500E+00  0.00000E+00  0.00000E+00  0.00000E+00    0.19739E+02  0.19361E+02 -0.39100E+02 -0.16328E+01  0.15983E+01  0.16052E+02      982.00
  0.50355E+00  0.65216E+02    0.27500E+00  0.27500E+00 -0.55000E+00  0.00000E+00  0.00000E+00  0.00000E+00    0.19738E+02  0.19413E+02 -0.39151E+02 -0.16118E+01  0.15609E+01  0.16218E+02      982.00
  0.52607E+00  0.65381E+02    0.28750E+00  0.28750E+00 -0.57500E+00  0.00000E+00  0.00000E+00  0.00000E+00    0.19730E+02  0.19465E+02 -0.39195E+02 -0.16001E+01  0.15294E+01  0.16364E+02      982.00
  0.54855E+00  0.65547E+02    0.30000E+00  0.30000E+00 -0.60000E+00  0.00000E+00  0.00000E+00  0.00000E+00    0.19730E+02  0.19508E+02 -0.39238E+02 -0.15900E+01  0.15044E+01  0.16511E+02      982.00
  0.57099E+00  0.65698E+02    0.31250E+00  0.31250E+00 -0.62500E+00  0.00000E+00  0.00000E+00  0.00000E+00    0.19728E+02  0.19547E+02 -0.39276E+02 -0.15842E+01  0.14847E+01  0.16647E+02      982.00
  0.59341E+00  0.65844E+02    0.32500E+00  0.32500E+00 -0.65000E+00  0.00000E+00  0.00000E+00  0.00000E+00    0.19729E+02  0.19583E+02 -0.39312E+02 -0.15818E+01  0.14692E+01  0.16775E+02      982.00
  0.61580E+00  0.65990E+02    0.33750E+00  0.33750E+00 -0.67500E+00  0.00000E+00  0.00000E+00  0.00000E+00    0.19724E+02  0.19622E+02 -0.39346E+02 -0.15817E+01  0.14523E+01  0.16907E+02      982.00
  0.63816E+00  0.66116E+02    0.35000E+00  0.35000E+00 -0.70000E+00  0.00000E+00  0.00000E+00  0.00000E+00    0.19725E+02  0.19652E+02 -0.39377E+02 -0.15856E+01  0.14438E+01  0.17018E+02      982.00
  0.66049E+00  0.66219E+02    0.36250E+00  0.36250E+00 -0.72500E+00  0.00000E+00  0.00000E+00  0.00000E+00    0.19732E+02  0.19668E+02 -0.39401E+02 -0.15918E+01  0.14442E+01  0.17110E+02      982.00
  0.68281E+00  0.66330E+02    0.37500E+00  0.37500E+00 -0.75000E+00  0.00000E+00  0.00000E+00  0.00000E+00    0.19736E+02  0.19691E+02 -0.39427E+02 -0.15982E+01  0.14402E+01  0.17207E+02      982.00
  0.70510E+00  0.66451E+02    0.38750E+00  0.38750E+00 -0.77500E+00  0.00000E+00  0.00000E+00  0.00000E+00    0.19726E+02  0.19734E+02 -0.39460E+02 -0.16034E+01  0.14204E+01  0.17306E+02      982.00
  0.72737E+00  0.66545E+02    0.40000E+00  0.40000E+00 -0.80000E+00  0.00000E+00  0.00000E+00  0.00000E+00    0.19728E+02  0.19753E+02 -0.39481E+02 -0.16152E+01  0.14194E+01  0.17389E+02      982.00
  0.74961E+00  0.66632E+02    0.41250E+00  0.41250E+00 -0.82500E+00  0.00000E+00  0.00000E+00  0.00000E+00    0.19734E+02  0.19767E+02 -0.39501E+02 -0.16264E+01  0.14210E+01  0.17465E+02      982.00
  0.77185E+00  0.66714E+02    0.42500E+00  0.42500E+00 -0.85000E+00  0.00000E+00  0.00000E+00  0.00000E+00    0.19741E+02  0.19779E+02 -0.39520E+02 -0.16379E+01  0.14240E+01  0.17536E+02      982.00
  0.79406E+00  0.66790E+02    0.43750E+00  0.43750E+00 -0.87500E+00  0.00000E+00  0.00000E+00  0.00000E+00    0.19749E+02  0.19788E+02 -0.39537E+02 -0.16496E+01  0.14277E+01  0.17602E+02      982.00
  0.81626E+00  0.66861E+02    0.45000E+00  0.45000E+00 -0.90000E+00  0.00000E+00  0.00000E+00  0.00000E+00    0.19758E+02  0.19795E+02 -0.39552E+02 -0.16615E+01  0.14319E+01  0.17664E+02      982.00
  0.83844E+00  0.66927E+02    0.46250E+00  0.46250E+00 -0.92500E+00  0.00000E+00  0.00000E+00  0.00000E+00    0.19767E+02  0.19800E+02 -0.39567E+02 -0.16736E+01  0.14364E+01  0.17722E+02      982.00
  0.86061E+00  0.67018E+02    0.47500E+00  0.47500E+00 -0.95000E+00  0.00000E+00  0.00000E+00  0.00000E+00    0.19776E+02  0.19805E+02 -0.39581E+02 -0.16948E+01  0.14432E+01  0.17810E+02      982.00
  0.88276E+00  0.67075E+02    0.48750E+00  0.48750E+00 -0.97500E+00  0.00000E+00  0.00000E+00  0.00000E+00    0.19785E+02  0.19808E+02 -0.39593E+02 -0.17093E+01  0.14481E+01  0.17859E+02      982.00
  0.90489E+00  0.67127E+02    0.50000E+00  0.50000E+00 -0.10000E+01  0.00000E+00  0.00000E+00  0.00000E+00    0.19797E+02  0.19808E+02 -0.39605E+02 -0.17220E+01  0.14533E+01  0.17904E+02      982.00
