          Evm          Svm            E11          E22          E33          E23          E13          E12         SDEV11       SDEV22       SDEV33       SDEV23       SDEV13       SDEV12      TEMP
  0.00000E+00  0.47924E+02    0.00000E+00  0.00000E+00  0.00000E+00  0.00000E+00  0.00000E+00  0.00000E+00    0.14888E+02  0.16480E+02 -0.31368E+02 -0.32515E+01 -0.28934E+01 -0.28327E+01      982.00
  0.24545E-01  0.48161E+02    0.12500E-01  0.12500E-01 -0.25000E-01  0.00000E+00  0.00000E+00  0.00000E+00    0.14491E+02  0.16919E+02 -0.31411E+02 -0.29608E+01 -0.35082E+01 -0.32628E+01      982.00
  0.49003E-01  0.48470E+02    0.25000E-01  0.25000E-01 -0.50000E-01  0.00000E+00  0.00000E+00  0.00000E+00    0.14185E+02  0.17308E+02 -0.31493E+02 -0.26957E+01 -0.40168E+01 -0.36659E+01      982.00
  0.73368E-01  0.48851E+02    0.37500E-01  0.37500E-01 -0.75000E-01  0.00000E+00  0.00000E+00  0.00000E+00    0.13942E+02  0.17673E+02 -0.31615E+02 -0.24508E+01 -0.44605E+01 -0.40559E+01      982.00
  0.97637E-01  0.49300E+02    0.50000E-01  0.50000E-01 -0.10000E+00  0.00000E+00  0.00000E+00  0.00000E+00    0.13752E+02  0.18026E+02 -0.31778E+02 -0.22287E+01 -0.48539E+01 -0.44381E+01      982.00
  0.12181E+00  0.49819E+02    0.62500E-01  0.62500E-01 -0.12500E+00  0.00000E+00  0.00000E+00  0.00000E+00    0.13606E+02  0.18377E+02 -0.31982E+02 -0.20294E+01 -0.52098E+01 -0.48169E+01      982.00
  0.14588E+00  0.50405E+02    0.75000E-01  0.75000E-01 -0.15000E+00  0.00000E+00  0.00000E+00  0.00000E+00    0.13496E+02  0.18731E+02 -0.32228E+02 -0.18512E+01 -0.55379E+01 -0.51952E+01      982.00
  0.16986E+00  0.51056E+02    0.87500E-01  0.87500E-01 -0.17500E+00  0.00000E+00  0.00000E+00  0.00000E+00    0.13418E+02  0.19094E+02 -0.32512E+02 -0.16925E+01 -0.58448E+01 -0.55731E+01      982.00
  0.19374E+00  0.51763E+02    0.10000E+00  0.10000E+00 -0.20000E+00  0.00000E+00  0.00000E+00  0.00000E+00    0.13365E+02  0.19466E+02 -0.32831E+02 -0.15515E+01 -0.61342E+01 -0.59486E+01      982.00
  0.21752E+00  0.52518E+02    0.11250E+00  0.11250E+00 -0.22500E+00  0.00000E+00  0.00000E+00  0.00000E+00    0.13332E+02  0.19850E+02 -0.33182E+02 -0.14308E+01 -0.64065E+01 -0.63157E+01      982.00
  0.24122E+00  0.53309E+02    0.12500E+00  0.12500E+00 -0.25000E+00  0.00000E+00  0.00000E+00  0.00000E+00    0.13315E+02  0.20243E+02 -0.33558E+02 -0.13224E+01 -0.66638E+01 -0.66718E+01      982.00
  0.26482E+00  0.54123E+02    0.13750E+00  0.13750E+00 -0.27500E+00  0.00000E+00  0.00000E+00  0.00000E+00    0.13309E+02  0.20645E+02 -0.33954E+02 -0.12291E+01 -0.69045E+01 -0.70091E+01      982.00
  0.28835E+00  0.54947E+02    0.15000E+00  0.15000E+00 -0.30000E+00  0.00000E+00  0.00000E+00  0.00000E+00    0.13310E+02  0.21054E+02 -0.34364E+02 -0.11502E+01 -0.71277E+01 -0.73217E+01      982.00
  0.31180E+00  0.55774E+02    0.16250E+00  0.16250E+00 -0.32500E+00  0.00000E+00  0.00000E+00  0.00000E+00    0.13313E+02  0.21471E+02 -0.34784E+02 -0.10790E+01 -0.73334E+01 -0.76064E+01      982.00
  0.33519E+00  0.56587E+02    0.17500E+00  0.17500E+00 -0.35000E+00  0.00000E+00  0.00000E+00  0.00000E+00    0.13319E+02  0.21889E+02 -0.35208E+02 -0.10246E+01 -0.75178E+01 -0.78542E+01      982.00
  0.35852E+00  0.57376E+02    0.18750E+00  0.18750E+00 -0.37500E+00  0.00000E+00  0.00000E+00  0.00000E+00    0.13326E+02  0.22305E+02 -0.35630E+02 -0.98156E+00 -0.76843E+01 -0.80651E+01      982.00
  0.38181E+00  0.58136E+02    0.20000E+00  0.20000E+00 -0.40000E+00  0.00000E+00  0.00000E+00  0.00000E+00    0.13329E+02  0.22715E+02 -0.36045E+02 -0.94901E+00 -0.78362E+01 -0.82388E+01      982.00
  0.40506E+00  0.58861E+02    0.21250E+00  0.21250E+00 -0.42500E+00  0.00000E+00  0.00000E+00  0.00000E+00    0.13329E+02  0.23122E+02 -0.36451E+02 -0.93309E+00 -0.79641E+01 -0.83728E+01      982.00
  0.42828E+00  0.59552E+02    0.22500E+00  0.22500E+00 -0.45000E+00  0.00000E+00  0.00000E+00  0.00000E+00    0.13325E+02  0.23519E+02 -0.36844E+02 -0.91831E+00 -0.80873E+01 -0.84733E+01      982.00
  0.45148E+00  0.60204E+02    0.23750E+00  0.23750E+00 -0.47500E+00  0.00000E+00  0.00000E+00  0.00000E+00    0.13320E+02  0.23908E+02 -0.37228E+02 -0.91350E+00 -0.81820E+01 -0.85385E+01      982.00
  0.47467E+00  0.60817E+02    0.25000E+00  0.25000E+00 -0.50000E+00  0.00000E+00  0.00000E+00  0.00000E+00    0.13312E+02  0.24286E+02 -0.37598E+02 -0.91135E+00 -0.82617E+01 -0.85743E+01      982.00
  0.49785E+00  0.61394E+02    0.26250E+00  0.26250E+00 -0.52500E+00  0.00000E+00  0.00000E+00  0.00000E+00    0.13302E+02  0.24651E+02 -0.37953E+02 -0.91027E+00 -0.83277E+01 -0.85839E+01      982.00
  0.52104E+00  0.61934E+02    0.27500E+00  0.27500E+00 -0.55000E+00  0.00000E+00  0.00000E+00  0.00000E+00    0.13291E+02  0.25003E+02 -0.38294E+02 -0.90941E+00 -0.83811E+01 -0.85701E+01      982.00
  0.54422E+00  0.62439E+02    0.28750E+00  0.28750E+00 -0.57500E+00  0.00000E+00  0.00000E+00  0.00000E+00    0.13278E+02  0.25340E+02 -0.38619E+02 -0.90815E+00 -0.84229E+01 -0.85358E+01      982.00
  0.56742E+00  0.62902E+02    0.30000E+00  0.30000E+00 -0.60000E+00  0.00000E+00  0.00000E+00  0.00000E+00    0.13267E+02  0.25658E+02 -0.38925E+02 -0.90595E+00 -0.84426E+01 -0.84879E+01      982.00
  0.59062E+00  0.63343E+02    0.31250E+00  0.31250E+00 -0.62500E+00  0.00000E+00  0.00000E+00  0.00000E+00    0.13253E+02  0.25967E+02 -0.39220E+02 -0.90179E+00 -0.84655E+01 -0.84215E+01      982.00
  0.61384E+00  0.63741E+02    0.32500E+00  0.32500E+00 -0.65000E+00  0.00000E+00  0.00000E+00  0.00000E+00    0.13235E+02  0.26256E+02 -0.39491E+02 -0.90093E+00 -0.84883E+01 -0.83313E+01      982.00
  0.63707E+00  0.64125E+02    0.33750E+00  0.33750E+00 -0.67500E+00  0.00000E+00  0.00000E+00  0.00000E+00    0.13220E+02  0.26537E+02 -0.39757E+02 -0.89581E+00 -0.84955E+01 -0.82407E+01      982.00
  0.66032E+00  0.64482E+02    0.35000E+00  0.35000E+00 -0.70000E+00  0.00000E+00  0.00000E+00  0.00000E+00    0.13205E+02  0.26803E+02 -0.40008E+02 -0.88835E+00 -0.84957E+01 -0.81417E+01      982.00
  0.68359E+00  0.64815E+02    0.36250E+00  0.36250E+00 -0.72500E+00  0.00000E+00  0.00000E+00  0.00000E+00    0.13189E+02  0.27057E+02 -0.40246E+02 -0.87915E+00 -0.84904E+01 -0.80356E+01      982.00
  0.70688E+00  0.65116E+02    0.37500E+00  0.37500E+00 -0.75000E+00  0.00000E+00  0.00000E+00  0.00000E+00    0.13170E+02  0.27298E+02 -0.40468E+02 -0.87005E+00 -0.84847E+01 -0.79043E+01      982.00
  0.73018E+00  0.65405E+02    0.38750E+00  0.38750E+00 -0.77500E+00  0.00000E+00  0.00000E+00  0.00000E+00    0.13155E+02  0.27525E+02 -0.40680E+02 -0.85846E+00 -0.84704E+01 -0.77876E+01      982.00
  0.75350E+00  0.65673E+02    0.40000E+00  0.40000E+00 -0.80000E+00  0.00000E+00  0.00000E+00  0.00000E+00    0.13140E+02  0.27740E+02 -0.40881E+02 -0.84449E+00 -0.84522E+01 -0.76683E+01      982.00
  0.77685E+00  0.65924E+02    0.41250E+00  0.41250E+00 -0.82500E+00  0.00000E+00  0.00000E+00  0.00000E+00    0.13125E+02  0.27944E+02 -0.41070E+02 -0.82896E+00 -0.84315E+01 -0.75468E+01      982.00
  0.80021E+00  0.66158E+02    0.42500E+00  0.42500E+00 -0.85000E+00  0.00000E+00  0.00000E+00  0.00000E+00    0.13110E+02  0.28138E+02 -0.41248E+02 -0.81217E+00 -0.84089E+01 -0.74236E+01      982.00
  0.82359E+00  0.66370E+02    0.43750E+00  0.43750E+00 -0.87500E+00  0.00000E+00  0.00000E+00  0.00000E+00    0.13092E+02  0.28325E+02 -0.41417E+02 -0.78966E+00 -0.83814E+01 -0.72733E+01      982.00
  0.84699E+00  0.66573E+02    0.45000E+00  0.45000E+00 -0.90000E+00  0.00000E+00  0.00000E+00  0.00000E+00    0.13077E+02  0.28498E+02 -0.41575E+02 -0.77039E+00 -0.83551E+01 -0.71492E+01      982.00
  0.87041E+00  0.66765E+02    0.46250E+00  0.46250E+00 -0.92500E+00  0.00000E+00  0.00000E+00  0.00000E+00    0.13061E+02  0.28664E+02 -0.41725E+02 -0.75271E+00 -0.83355E+01 -0.70177E+01      982.00
  0.89385E+00  0.66944E+02    0.47500E+00  0.47500E+00 -0.95000E+00  0.00000E+00  0.00000E+00  0.00000E+00    0.13045E+02  0.28819E+02 -0.41865E+02 -0.73251E+00 -0.83102E+01 -0.68942E+01      982.00
  0.91730E+00  0.67057E+02    0.48750E+00  0.48750E+00 -0.97500E+00  0.00000E+00  0.00000E+00  0.00000E+00    0.13025E+02  0.28943E+02 -0.41968E+02 -0.70634E+00 -0.82263E+01 -0.68117E+01      982.00
  0.94077E+00  0.67145E+02    0.50000E+00  0.50000E+00 -0.10000E+01  0.00000E+00  0.00000E+00  0.00000E+00    0.13002E+02  0.29056E+02 -0.42058E+02 -0.68406E+00 -0.81621E+01 -0.66842E+01      982.00
