          Evm          Svm            E11          E22          E33          E23          E13          E12         SDEV11       SDEV22       SDEV33       SDEV23       SDEV13       SDEV12      TEMP
  0.00000E+00  0.64003E+02    0.00000E+00  0.00000E+00  0.00000E+00  0.00000E+00  0.00000E+00  0.00000E+00    0.19853E+02  0.21581E+02 -0.41434E+02 -0.30296E+01  0.27550E+01  0.77684E+01      982.00
  0.24277E-01  0.64060E+02    0.12500E-01  0.12500E-01 -0.25000E-01  0.00000E+00  0.00000E+00  0.00000E+00    0.19178E+02  0.22285E+02 -0.41463E+02 -0.28544E+01  0.25200E+01  0.78505E+01      982.00
  0.48548E-01  0.64116E+02    0.25000E-01  0.25000E-01 -0.50000E-01  0.00000E+00  0.00000E+00  0.00000E+00    0.18650E+02  0.22833E+02 -0.41482E+02 -0.28413E+01  0.22507E+01  0.78864E+01      982.00
  0.72810E-01  0.64192E+02    0.37500E-01  0.37500E-01 -0.75000E-01  0.00000E+00  0.00000E+00  0.00000E+00    0.18227E+02  0.23280E+02 -0.41506E+02 -0.29073E+01  0.19958E+01  0.79146E+01      982.00
  0.97058E-01  0.64296E+02    0.50000E-01  0.50000E-01 -0.10000E+00  0.00000E+00  0.00000E+00  0.00000E+00    0.17888E+02  0.23653E+02 -0.41541E+02 -0.30042E+01  0.17752E+01  0.79531E+01      982.00
  0.12129E+00  0.64434E+02    0.62500E-01  0.62500E-01 -0.12500E+00  0.00000E+00  0.00000E+00  0.00000E+00    0.17621E+02  0.23971E+02 -0.41592E+02 -0.31085E+01  0.15923E+01  0.80136E+01      982.00
  0.14549E+00  0.64602E+02    0.75000E-01  0.75000E-01 -0.15000E+00  0.00000E+00  0.00000E+00  0.00000E+00    0.17398E+02  0.24259E+02 -0.41657E+02 -0.32072E+01  0.14470E+01  0.80912E+01      982.00
  0.16967E+00  0.64806E+02    0.87500E-01  0.87500E-01 -0.17500E+00  0.00000E+00  0.00000E+00  0.00000E+00    0.17229E+02  0.24514E+02 -0.41742E+02 -0.33013E+01  0.13327E+01  0.81968E+01      982.00
  0.19383E+00  0.65031E+02    0.10000E+00  0.10000E+00 -0.20000E+00  0.00000E+00  0.00000E+00  0.00000E+00    0.17086E+02  0.24752E+02 -0.41838E+02 -0.33845E+01  0.12463E+01  0.83153E+01      982.00
  0.21795E+00  0.65291E+02    0.11250E+00  0.11250E+00 -0.22500E+00  0.00000E+00  0.00000E+00  0.00000E+00    0.16985E+02  0.24969E+02 -0.41954E+02 -0.34647E+01  0.11829E+01  0.84586E+01      982.00
  0.24205E+00  0.65556E+02    0.12500E+00  0.12500E+00 -0.25000E+00  0.00000E+00  0.00000E+00  0.00000E+00    0.16899E+02  0.25173E+02 -0.42072E+02 -0.35326E+01  0.11384E+01  0.86084E+01      982.00
  0.26612E+00  0.65842E+02    0.13750E+00  0.13750E+00 -0.27500E+00  0.00000E+00  0.00000E+00  0.00000E+00    0.16845E+02  0.25358E+02 -0.42202E+02 -0.35975E+01  0.11109E+01  0.87725E+01      982.00
  0.29015E+00  0.66124E+02    0.15000E+00  0.15000E+00 -0.30000E+00  0.00000E+00  0.00000E+00  0.00000E+00    0.16799E+02  0.25531E+02 -0.42330E+02 -0.36500E+01  0.10959E+01  0.89426E+01      982.00
  0.31416E+00  0.66410E+02    0.16250E+00  0.16250E+00 -0.32500E+00  0.00000E+00  0.00000E+00  0.00000E+00    0.16780E+02  0.25683E+02 -0.42462E+02 -0.36980E+01  0.10942E+01  0.91153E+01      982.00
  0.33814E+00  0.66694E+02    0.17500E+00  0.17500E+00 -0.35000E+00  0.00000E+00  0.00000E+00  0.00000E+00    0.16767E+02  0.25825E+02 -0.42592E+02 -0.37335E+01  0.11011E+01  0.92993E+01      982.00
  0.36208E+00  0.66940E+02    0.18750E+00  0.18750E+00 -0.37500E+00  0.00000E+00  0.00000E+00  0.00000E+00    0.16780E+02  0.25928E+02 -0.42708E+02 -0.37628E+01  0.11186E+01  0.94538E+01      982.00
  0.38601E+00  0.67189E+02    0.20000E+00  0.20000E+00 -0.40000E+00  0.00000E+00  0.00000E+00  0.00000E+00    0.16785E+02  0.26032E+02 -0.42817E+02 -0.37717E+01  0.11414E+01  0.96412E+01      982.00
  0.40991E+00  0.67421E+02    0.21250E+00  0.21250E+00 -0.42500E+00  0.00000E+00  0.00000E+00  0.00000E+00    0.16814E+02  0.26109E+02 -0.42923E+02 -0.37771E+01  0.11729E+01  0.98079E+01      982.00
  0.43378E+00  0.67632E+02    0.22500E+00  0.22500E+00 -0.45000E+00  0.00000E+00  0.00000E+00  0.00000E+00    0.16851E+02  0.26167E+02 -0.43018E+02 -0.37719E+01  0.12091E+01  0.99696E+01      982.00
  0.45763E+00  0.67818E+02    0.23750E+00  0.23750E+00 -0.47500E+00  0.00000E+00  0.00000E+00  0.00000E+00    0.16896E+02  0.26208E+02 -0.43103E+02 -0.37635E+01  0.12482E+01  0.10114E+02      982.00
  0.48147E+00  0.68004E+02    0.25000E+00  0.25000E+00 -0.50000E+00  0.00000E+00  0.00000E+00  0.00000E+00    0.16945E+02  0.26242E+02 -0.43187E+02 -0.37484E+01  0.12913E+01  0.10265E+02      982.00
  0.50528E+00  0.68164E+02    0.26250E+00  0.26250E+00 -0.52500E+00  0.00000E+00  0.00000E+00  0.00000E+00    0.16999E+02  0.26258E+02 -0.43257E+02 -0.37168E+01  0.13363E+01  0.10411E+02      982.00
  0.52908E+00  0.68309E+02    0.27500E+00  0.27500E+00 -0.55000E+00  0.00000E+00  0.00000E+00  0.00000E+00    0.17060E+02  0.26261E+02 -0.43320E+02 -0.36788E+01  0.13824E+01  0.10549E+02      982.00
  0.55286E+00  0.68440E+02    0.28750E+00  0.28750E+00 -0.57500E+00  0.00000E+00  0.00000E+00  0.00000E+00    0.17125E+02  0.26253E+02 -0.43377E+02 -0.36356E+01  0.14287E+01  0.10680E+02      982.00
  0.57663E+00  0.68546E+02    0.30000E+00  0.30000E+00 -0.60000E+00  0.00000E+00  0.00000E+00  0.00000E+00    0.17201E+02  0.26223E+02 -0.43424E+02 -0.35824E+01  0.14724E+01  0.10797E+02      982.00
  0.60038E+00  0.68655E+02    0.31250E+00  0.31250E+00 -0.62500E+00  0.00000E+00  0.00000E+00  0.00000E+00    0.17274E+02  0.26199E+02 -0.43473E+02 -0.35332E+01  0.15169E+01  0.10912E+02      982.00
  0.62413E+00  0.68755E+02    0.32500E+00  0.32500E+00 -0.65000E+00  0.00000E+00  0.00000E+00  0.00000E+00    0.17347E+02  0.26171E+02 -0.43517E+02 -0.34824E+01  0.15596E+01  0.11018E+02      982.00
  0.64787E+00  0.68843E+02    0.33750E+00  0.33750E+00 -0.67500E+00  0.00000E+00  0.00000E+00  0.00000E+00    0.17420E+02  0.26137E+02 -0.43557E+02 -0.34304E+01  0.15996E+01  0.11115E+02      982.00
  0.67159E+00  0.68927E+02    0.35000E+00  0.35000E+00 -0.70000E+00  0.00000E+00  0.00000E+00  0.00000E+00    0.17494E+02  0.26102E+02 -0.43596E+02 -0.33796E+01  0.16378E+01  0.11205E+02      982.00
  0.69531E+00  0.68993E+02    0.36250E+00  0.36250E+00 -0.72500E+00  0.00000E+00  0.00000E+00  0.00000E+00    0.17575E+02  0.26052E+02 -0.43627E+02 -0.33212E+01  0.16758E+01  0.11286E+02      982.00
  0.71902E+00  0.69065E+02    0.37500E+00  0.37500E+00 -0.75000E+00  0.00000E+00  0.00000E+00  0.00000E+00    0.17646E+02  0.26016E+02 -0.43661E+02 -0.32727E+01  0.17096E+01  0.11362E+02      982.00
  0.74273E+00  0.69130E+02    0.38750E+00  0.38750E+00 -0.77500E+00  0.00000E+00  0.00000E+00  0.00000E+00    0.17714E+02  0.25979E+02 -0.43693E+02 -0.32257E+01  0.17409E+01  0.11429E+02      982.00
  0.76643E+00  0.69190E+02    0.40000E+00  0.40000E+00 -0.80000E+00  0.00000E+00  0.00000E+00  0.00000E+00    0.17781E+02  0.25943E+02 -0.43724E+02 -0.31804E+01  0.17701E+01  0.11491E+02      982.00
  0.79013E+00  0.69246E+02    0.41250E+00  0.41250E+00 -0.82500E+00  0.00000E+00  0.00000E+00  0.00000E+00    0.17845E+02  0.25907E+02 -0.43752E+02 -0.31369E+01  0.17971E+01  0.11546E+02      982.00
  0.81382E+00  0.69297E+02    0.42500E+00  0.42500E+00 -0.85000E+00  0.00000E+00  0.00000E+00  0.00000E+00    0.17907E+02  0.25873E+02 -0.43779E+02 -0.30952E+01  0.18223E+01  0.11596E+02      982.00
  0.83751E+00  0.69345E+02    0.43750E+00  0.43750E+00 -0.87500E+00  0.00000E+00  0.00000E+00  0.00000E+00    0.17966E+02  0.25839E+02 -0.43805E+02 -0.30554E+01  0.18457E+01  0.11640E+02      982.00
  0.86120E+00  0.69389E+02    0.45000E+00  0.45000E+00 -0.90000E+00  0.00000E+00  0.00000E+00  0.00000E+00    0.18022E+02  0.25807E+02 -0.43829E+02 -0.30173E+01  0.18676E+01  0.11681E+02      982.00
  0.88489E+00  0.69430E+02    0.46250E+00  0.46250E+00 -0.92500E+00  0.00000E+00  0.00000E+00  0.00000E+00    0.18076E+02  0.25777E+02 -0.43852E+02 -0.29810E+01  0.18880E+01  0.11716E+02      982.00
  0.90858E+00  0.69468E+02    0.47500E+00  0.47500E+00 -0.95000E+00  0.00000E+00  0.00000E+00  0.00000E+00    0.18127E+02  0.25748E+02 -0.43874E+02 -0.29463E+01  0.19072E+01  0.11749E+02      982.00
  0.93226E+00  0.69503E+02    0.48750E+00  0.48750E+00 -0.97500E+00  0.00000E+00  0.00000E+00  0.00000E+00    0.18175E+02  0.25720E+02 -0.43895E+02 -0.29133E+01  0.19253E+01  0.11777E+02      982.00
  0.95594E+00  0.69500E+02    0.50000E+00  0.50000E+00 -0.10000E+01  0.00000E+00  0.00000E+00  0.00000E+00    0.18208E+02  0.25685E+02 -0.43893E+02 -0.28698E+01  0.19344E+01  0.11799E+02      982.00
