          Evm          Svm            E11          E22          E33          E23          E13          E12         SDEV11       SDEV22       SDEV33       SDEV23       SDEV13       SDEV12      TEMP
  0.00000E+00  0.61589E+02    0.00000E+00  0.00000E+00  0.00000E+00  0.00000E+00  0.00000E+00  0.00000E+00    0.22532E+02  0.17681E+02 -0.40213E+02  0.27541E+01 -0.41615E+01  0.45619E+01      982.00
  0.24485E-01  0.61875E+02    0.12500E-01  0.12500E-01 -0.25000E-01  0.00000E+00  0.00000E+00  0.00000E+00    0.21802E+02  0.18590E+02 -0.40392E+02  0.30313E+01 -0.41200E+01  0.48782E+01      982.00
  0.48965E-01  0.62311E+02    0.25000E-01  0.25000E-01 -0.50000E-01  0.00000E+00  0.00000E+00  0.00000E+00    0.20917E+02  0.19720E+02 -0.40638E+02  0.33603E+01 -0.40534E+01  0.52522E+01      982.00
  0.73421E-01  0.62748E+02    0.37500E-01  0.37500E-01 -0.75000E-01  0.00000E+00  0.00000E+00  0.00000E+00    0.20031E+02  0.20831E+02 -0.40862E+02  0.36154E+01 -0.39637E+01  0.55863E+01      982.00
  0.97841E-01  0.63105E+02    0.50000E-01  0.50000E-01 -0.10000E+00  0.00000E+00  0.00000E+00  0.00000E+00    0.19300E+02  0.21737E+02 -0.41037E+02  0.37136E+01 -0.38622E+01  0.58445E+01      982.00
  0.12223E+00  0.63391E+02    0.62500E-01  0.62500E-01 -0.12500E+00  0.00000E+00  0.00000E+00  0.00000E+00    0.18755E+02  0.22423E+02 -0.41177E+02  0.36844E+01 -0.37543E+01  0.60620E+01      982.00
  0.14659E+00  0.63646E+02    0.75000E-01  0.75000E-01 -0.15000E+00  0.00000E+00  0.00000E+00  0.00000E+00    0.18369E+02  0.22936E+02 -0.41305E+02  0.35814E+01 -0.36469E+01  0.62705E+01      982.00
  0.17092E+00  0.63898E+02    0.87500E-01  0.87500E-01 -0.17500E+00  0.00000E+00  0.00000E+00  0.00000E+00    0.18110E+02  0.23327E+02 -0.41437E+02  0.34441E+01 -0.35453E+01  0.64803E+01      982.00
  0.19524E+00  0.64166E+02    0.10000E+00  0.10000E+00 -0.20000E+00  0.00000E+00  0.00000E+00  0.00000E+00    0.17936E+02  0.23642E+02 -0.41578E+02  0.33025E+01 -0.34530E+01  0.66995E+01      982.00
  0.21954E+00  0.64452E+02    0.11250E+00  0.11250E+00 -0.22500E+00  0.00000E+00  0.00000E+00  0.00000E+00    0.17824E+02  0.23906E+02 -0.41730E+02  0.31698E+01 -0.33716E+01  0.69258E+01      982.00
  0.24382E+00  0.64757E+02    0.12500E+00  0.12500E+00 -0.25000E+00  0.00000E+00  0.00000E+00  0.00000E+00    0.17755E+02  0.24136E+02 -0.41891E+02  0.30510E+01 -0.33028E+01  0.71592E+01      982.00
  0.26808E+00  0.65079E+02    0.13750E+00  0.13750E+00 -0.27500E+00  0.00000E+00  0.00000E+00  0.00000E+00    0.17728E+02  0.24335E+02 -0.42063E+02  0.29442E+01 -0.32512E+01  0.73896E+01      982.00
  0.29232E+00  0.65415E+02    0.15000E+00  0.15000E+00 -0.30000E+00  0.00000E+00  0.00000E+00  0.00000E+00    0.17715E+02  0.24524E+02 -0.42239E+02  0.28564E+01 -0.32101E+01  0.76303E+01      982.00
  0.31653E+00  0.65754E+02    0.16250E+00  0.16250E+00 -0.32500E+00  0.00000E+00  0.00000E+00  0.00000E+00    0.17728E+02  0.24690E+02 -0.42418E+02  0.27800E+01 -0.31863E+01  0.78583E+01      982.00
  0.34072E+00  0.66093E+02    0.17500E+00  0.17500E+00 -0.35000E+00  0.00000E+00  0.00000E+00  0.00000E+00    0.17752E+02  0.24842E+02 -0.42594E+02  0.27149E+01 -0.31751E+01  0.80837E+01      982.00
  0.36489E+00  0.66411E+02    0.18750E+00  0.18750E+00 -0.37500E+00  0.00000E+00  0.00000E+00  0.00000E+00    0.17772E+02  0.24982E+02 -0.42754E+02  0.26642E+01 -0.31722E+01  0.83095E+01      982.00
  0.38903E+00  0.66733E+02    0.20000E+00  0.20000E+00 -0.40000E+00  0.00000E+00  0.00000E+00  0.00000E+00    0.17807E+02  0.25109E+02 -0.42916E+02  0.26155E+01 -0.31832E+01  0.85305E+01      982.00
  0.41315E+00  0.67041E+02    0.21250E+00  0.21250E+00 -0.42500E+00  0.00000E+00  0.00000E+00  0.00000E+00    0.17843E+02  0.25225E+02 -0.43067E+02  0.25721E+01 -0.32038E+01  0.87512E+01      982.00
  0.43724E+00  0.67363E+02    0.22500E+00  0.22500E+00 -0.45000E+00  0.00000E+00  0.00000E+00  0.00000E+00    0.17875E+02  0.25340E+02 -0.43215E+02  0.25338E+01 -0.32343E+01  0.90052E+01      982.00
  0.46130E+00  0.67638E+02    0.23750E+00  0.23750E+00 -0.47500E+00  0.00000E+00  0.00000E+00  0.00000E+00    0.17907E+02  0.25432E+02 -0.43339E+02  0.24976E+01 -0.32721E+01  0.92283E+01      982.00
  0.48532E+00  0.67896E+02    0.25000E+00  0.25000E+00 -0.50000E+00  0.00000E+00  0.00000E+00  0.00000E+00    0.17935E+02  0.25513E+02 -0.43448E+02  0.24628E+01 -0.33177E+01  0.94536E+01      982.00
  0.50932E+00  0.68137E+02    0.26250E+00  0.26250E+00 -0.52500E+00  0.00000E+00  0.00000E+00  0.00000E+00    0.17960E+02  0.25583E+02 -0.43543E+02  0.24293E+01 -0.33702E+01  0.96828E+01      982.00
  0.53329E+00  0.68362E+02    0.27500E+00  0.27500E+00 -0.55000E+00  0.00000E+00  0.00000E+00  0.00000E+00    0.17981E+02  0.25643E+02 -0.43623E+02  0.23971E+01 -0.34287E+01  0.99167E+01      982.00
  0.55722E+00  0.68570E+02    0.28750E+00  0.28750E+00 -0.57500E+00  0.00000E+00  0.00000E+00  0.00000E+00    0.17997E+02  0.25692E+02 -0.43689E+02  0.23664E+01 -0.34927E+01  0.10156E+02      982.00
  0.58111E+00  0.68763E+02    0.30000E+00  0.30000E+00 -0.60000E+00  0.00000E+00  0.00000E+00  0.00000E+00    0.18009E+02  0.25731E+02 -0.43740E+02  0.23378E+01 -0.35612E+01  0.10402E+02      982.00
  0.60496E+00  0.68941E+02    0.31250E+00  0.31250E+00 -0.62500E+00  0.00000E+00  0.00000E+00  0.00000E+00    0.18016E+02  0.25760E+02 -0.43776E+02  0.23119E+01 -0.36334E+01  0.10654E+02      982.00
  0.62877E+00  0.69103E+02    0.32500E+00  0.32500E+00 -0.65000E+00  0.00000E+00  0.00000E+00  0.00000E+00    0.18019E+02  0.25778E+02 -0.43797E+02  0.22899E+01 -0.37084E+01  0.10913E+02      982.00
  0.65254E+00  0.69251E+02    0.33750E+00  0.33750E+00 -0.67500E+00  0.00000E+00  0.00000E+00  0.00000E+00    0.18018E+02  0.25785E+02 -0.43803E+02  0.22732E+01 -0.37853E+01  0.11180E+02      982.00
  0.67626E+00  0.69386E+02    0.35000E+00  0.35000E+00 -0.70000E+00  0.00000E+00  0.00000E+00  0.00000E+00    0.18013E+02  0.25782E+02 -0.43794E+02  0.22626E+01 -0.38632E+01  0.11455E+02      982.00
  0.69993E+00  0.69519E+02    0.36250E+00  0.36250E+00 -0.72500E+00  0.00000E+00  0.00000E+00  0.00000E+00    0.18003E+02  0.25768E+02 -0.43771E+02  0.22601E+01 -0.39549E+01  0.11756E+02      982.00
  0.72354E+00  0.69626E+02    0.37500E+00  0.37500E+00 -0.75000E+00  0.00000E+00  0.00000E+00  0.00000E+00    0.17990E+02  0.25743E+02 -0.43733E+02  0.22672E+01 -0.40326E+01  0.12046E+02      982.00
  0.74709E+00  0.69721E+02    0.38750E+00  0.38750E+00 -0.77500E+00  0.00000E+00  0.00000E+00  0.00000E+00    0.17973E+02  0.25707E+02 -0.43680E+02  0.22841E+01 -0.41092E+01  0.12343E+02      982.00
  0.77059E+00  0.69803E+02    0.40000E+00  0.40000E+00 -0.80000E+00  0.00000E+00  0.00000E+00  0.00000E+00    0.17951E+02  0.25661E+02 -0.43612E+02  0.23111E+01 -0.41851E+01  0.12647E+02      982.00
  0.79402E+00  0.69873E+02    0.41250E+00  0.41250E+00 -0.82500E+00  0.00000E+00  0.00000E+00  0.00000E+00    0.17925E+02  0.25605E+02 -0.43529E+02  0.23459E+01 -0.42542E+01  0.12961E+02      982.00
  0.81738E+00  0.69933E+02    0.42500E+00  0.42500E+00 -0.85000E+00  0.00000E+00  0.00000E+00  0.00000E+00    0.17890E+02  0.25542E+02 -0.43433E+02  0.23912E+01 -0.43294E+01  0.13278E+02      982.00
  0.84067E+00  0.69981E+02    0.43750E+00  0.43750E+00 -0.87500E+00  0.00000E+00  0.00000E+00  0.00000E+00    0.17846E+02  0.25474E+02 -0.43321E+02  0.24437E+01 -0.44060E+01  0.13601E+02      982.00
  0.86388E+00  0.69967E+02    0.45000E+00  0.45000E+00 -0.90000E+00  0.00000E+00  0.00000E+00  0.00000E+00    0.17781E+02  0.25387E+02 -0.43168E+02  0.24966E+01 -0.44693E+01  0.13911E+02      982.00
  0.88702E+00  0.69949E+02    0.46250E+00  0.46250E+00 -0.92500E+00  0.00000E+00  0.00000E+00  0.00000E+00    0.17702E+02  0.25301E+02 -0.43004E+02  0.25526E+01 -0.45405E+01  0.14227E+02      982.00
  0.91007E+00  0.69924E+02    0.47500E+00  0.47500E+00 -0.95000E+00  0.00000E+00  0.00000E+00  0.00000E+00    0.17608E+02  0.25218E+02 -0.42826E+02  0.26087E+01 -0.46148E+01  0.14548E+02      982.00
  0.93304E+00  0.69890E+02    0.48750E+00  0.48750E+00 -0.97500E+00  0.00000E+00  0.00000E+00  0.00000E+00    0.17494E+02  0.25139E+02 -0.42633E+02  0.26625E+01 -0.46909E+01  0.14877E+02      982.00
  0.95592E+00  0.69849E+02    0.50000E+00  0.50000E+00 -0.10000E+01  0.00000E+00  0.00000E+00  0.00000E+00    0.17361E+02  0.25065E+02 -0.42426E+02  0.27117E+01 -0.47672E+01  0.15212E+02      982.00
