          Evm          Svm            E11          E22          E33          E23          E13          E12         SDEV11       SDEV22       SDEV33       SDEV23       SDEV13       SDEV12      TEMP
  0.00000E+00  0.61143E+02    0.00000E+00  0.00000E+00  0.00000E+00  0.00000E+00  0.00000E+00  0.00000E+00    0.20365E+02  0.15835E+02 -0.36200E+02  0.47904E+01 -0.91190E+01  0.12332E+02      982.00
  0.22202E-01  0.61491E+02    0.12500E-01  0.12500E-01 -0.25000E-01  0.00000E+00  0.00000E+00  0.00000E+00    0.19646E+02  0.16601E+02 -0.36247E+02  0.51253E+01 -0.88716E+01  0.12951E+02      982.00
  0.44307E-01  0.61870E+02    0.25000E-01  0.25000E-01 -0.50000E-01  0.00000E+00  0.00000E+00  0.00000E+00    0.18996E+02  0.17281E+02 -0.36276E+02  0.54156E+01 -0.86748E+01  0.13553E+02      982.00
  0.66294E-01  0.62217E+02    0.37500E-01  0.37500E-01 -0.75000E-01  0.00000E+00  0.00000E+00  0.00000E+00    0.18406E+02  0.17861E+02 -0.36267E+02  0.56694E+01 -0.85069E+01  0.14117E+02      982.00
  0.88153E-01  0.62475E+02    0.50000E-01  0.50000E-01 -0.10000E+00  0.00000E+00  0.00000E+00  0.00000E+00    0.17919E+02  0.18301E+02 -0.36220E+02  0.58397E+01 -0.83392E+01  0.14610E+02      982.00
  0.10989E+00  0.62666E+02    0.62500E-01  0.62500E-01 -0.12500E+00  0.00000E+00  0.00000E+00  0.00000E+00    0.17566E+02  0.18597E+02 -0.36163E+02  0.58804E+01 -0.81537E+01  0.15062E+02      982.00
  0.13153E+00  0.62838E+02    0.75000E-01  0.75000E-01 -0.15000E+00  0.00000E+00  0.00000E+00  0.00000E+00    0.17307E+02  0.18806E+02 -0.36113E+02  0.58075E+01 -0.79326E+01  0.15520E+02      982.00
  0.15309E+00  0.63009E+02    0.87500E-01  0.87500E-01 -0.17500E+00  0.00000E+00  0.00000E+00  0.00000E+00    0.17118E+02  0.18953E+02 -0.36070E+02  0.56356E+01 -0.76802E+01  0.16000E+02      982.00
  0.17455E+00  0.63189E+02    0.10000E+00  0.10000E+00 -0.20000E+00  0.00000E+00  0.00000E+00  0.00000E+00    0.16970E+02  0.19064E+02 -0.36034E+02  0.53898E+01 -0.73964E+01  0.16500E+02      982.00
  0.19594E+00  0.63379E+02    0.11250E+00  0.11250E+00 -0.22500E+00  0.00000E+00  0.00000E+00  0.00000E+00    0.16836E+02  0.19166E+02 -0.36002E+02  0.50935E+01 -0.70776E+01  0.17014E+02      982.00
  0.21724E+00  0.63574E+02    0.12500E+00  0.12500E+00 -0.25000E+00  0.00000E+00  0.00000E+00  0.00000E+00    0.16713E+02  0.19259E+02 -0.35972E+02  0.47603E+01 -0.67369E+01  0.17523E+02      982.00
  0.23846E+00  0.63773E+02    0.13750E+00  0.13750E+00 -0.27500E+00  0.00000E+00  0.00000E+00  0.00000E+00    0.16591E+02  0.19355E+02 -0.35946E+02  0.44025E+01 -0.63738E+01  0.18019E+02      982.00
  0.25959E+00  0.63972E+02    0.15000E+00  0.15000E+00 -0.30000E+00  0.00000E+00  0.00000E+00  0.00000E+00    0.16472E+02  0.19453E+02 -0.35925E+02  0.40286E+01 -0.59961E+01  0.18487E+02      982.00
  0.28065E+00  0.64167E+02    0.16250E+00  0.16250E+00 -0.32500E+00  0.00000E+00  0.00000E+00  0.00000E+00    0.16348E+02  0.19563E+02 -0.35910E+02  0.36441E+01 -0.55990E+01  0.18924E+02      982.00
  0.30164E+00  0.64355E+02    0.17500E+00  0.17500E+00 -0.35000E+00  0.00000E+00  0.00000E+00  0.00000E+00    0.16224E+02  0.19681E+02 -0.35905E+02  0.32527E+01 -0.51883E+01  0.19317E+02      982.00
  0.32256E+00  0.64532E+02    0.18750E+00  0.18750E+00 -0.37500E+00  0.00000E+00  0.00000E+00  0.00000E+00    0.16105E+02  0.19806E+02 -0.35911E+02  0.28569E+01 -0.47657E+01  0.19663E+02      982.00
  0.34343E+00  0.64696E+02    0.20000E+00  0.20000E+00 -0.40000E+00  0.00000E+00  0.00000E+00  0.00000E+00    0.15992E+02  0.19937E+02 -0.35929E+02  0.24585E+01 -0.43325E+01  0.19957E+02      982.00
  0.36426E+00  0.64846E+02    0.21250E+00  0.21250E+00 -0.42500E+00  0.00000E+00  0.00000E+00  0.00000E+00    0.15895E+02  0.20067E+02 -0.35962E+02  0.20601E+01 -0.38950E+01  0.20198E+02      982.00
  0.38505E+00  0.64980E+02    0.22500E+00  0.22500E+00 -0.45000E+00  0.00000E+00  0.00000E+00  0.00000E+00    0.15807E+02  0.20202E+02 -0.36010E+02  0.16613E+01 -0.34465E+01  0.20383E+02      982.00
  0.40583E+00  0.65099E+02    0.23750E+00  0.23750E+00 -0.47500E+00  0.00000E+00  0.00000E+00  0.00000E+00    0.15736E+02  0.20337E+02 -0.36073E+02  0.12654E+01 -0.29944E+01  0.20515E+02      982.00
  0.42661E+00  0.65205E+02    0.25000E+00  0.25000E+00 -0.50000E+00  0.00000E+00  0.00000E+00  0.00000E+00    0.15685E+02  0.20467E+02 -0.36152E+02  0.87590E+00 -0.25434E+01  0.20593E+02      982.00
  0.44740E+00  0.65299E+02    0.26250E+00  0.26250E+00 -0.52500E+00  0.00000E+00  0.00000E+00  0.00000E+00    0.15654E+02  0.20591E+02 -0.36245E+02  0.49723E+00 -0.20994E+01  0.20622E+02      982.00
  0.46822E+00  0.65386E+02    0.27500E+00  0.27500E+00 -0.55000E+00  0.00000E+00  0.00000E+00  0.00000E+00    0.15648E+02  0.20705E+02 -0.36353E+02  0.13911E+00 -0.16763E+01  0.20610E+02      982.00
  0.48907E+00  0.65464E+02    0.28750E+00  0.28750E+00 -0.57500E+00  0.00000E+00  0.00000E+00  0.00000E+00    0.15660E+02  0.20812E+02 -0.36472E+02 -0.20094E+00 -0.12679E+01  0.20557E+02      982.00
  0.50996E+00  0.65537E+02    0.30000E+00  0.30000E+00 -0.60000E+00  0.00000E+00  0.00000E+00  0.00000E+00    0.15692E+02  0.20909E+02 -0.36600E+02 -0.51419E+00 -0.88719E+00  0.20474E+02      982.00
  0.53090E+00  0.65606E+02    0.31250E+00  0.31250E+00 -0.62500E+00  0.00000E+00  0.00000E+00  0.00000E+00    0.15741E+02  0.20996E+02 -0.36736E+02 -0.80153E+00 -0.53275E+00  0.20364E+02      982.00
  0.55190E+00  0.65676E+02    0.32500E+00  0.32500E+00 -0.65000E+00  0.00000E+00  0.00000E+00  0.00000E+00    0.15807E+02  0.21069E+02 -0.36877E+02 -0.10504E+01 -0.22240E+00  0.20243E+02      982.00
  0.57296E+00  0.65747E+02    0.33750E+00  0.33750E+00 -0.67500E+00  0.00000E+00  0.00000E+00  0.00000E+00    0.15887E+02  0.21133E+02 -0.37020E+02 -0.12680E+01  0.53510E-01  0.20112E+02      982.00
  0.59407E+00  0.65816E+02    0.35000E+00  0.35000E+00 -0.70000E+00  0.00000E+00  0.00000E+00  0.00000E+00    0.15976E+02  0.21189E+02 -0.37165E+02 -0.14589E+01  0.30061E+00  0.19974E+02      982.00
  0.61525E+00  0.65886E+02    0.36250E+00  0.36250E+00 -0.72500E+00  0.00000E+00  0.00000E+00  0.00000E+00    0.16074E+02  0.21235E+02 -0.37309E+02 -0.16201E+01  0.51368E+00  0.19837E+02      982.00
  0.63648E+00  0.65960E+02    0.37500E+00  0.37500E+00 -0.75000E+00  0.00000E+00  0.00000E+00  0.00000E+00    0.16178E+02  0.21272E+02 -0.37450E+02 -0.17513E+01  0.69159E+00  0.19706E+02      982.00
  0.65777E+00  0.66034E+02    0.38750E+00  0.38750E+00 -0.77500E+00  0.00000E+00  0.00000E+00  0.00000E+00    0.16286E+02  0.21302E+02 -0.37588E+02 -0.18599E+01  0.84362E+00  0.19580E+02      982.00
  0.67912E+00  0.66106E+02    0.40000E+00  0.40000E+00 -0.80000E+00  0.00000E+00  0.00000E+00  0.00000E+00    0.16397E+02  0.21326E+02 -0.37722E+02 -0.19521E+01  0.97749E+00  0.19457E+02      982.00
  0.70052E+00  0.66177E+02    0.41250E+00  0.41250E+00 -0.82500E+00  0.00000E+00  0.00000E+00  0.00000E+00    0.16508E+02  0.21344E+02 -0.37852E+02 -0.20274E+01  0.10918E+01  0.19340E+02      982.00
  0.72197E+00  0.66250E+02    0.42500E+00  0.42500E+00 -0.85000E+00  0.00000E+00  0.00000E+00  0.00000E+00    0.16619E+02  0.21357E+02 -0.37976E+02 -0.20850E+01  0.11846E+01  0.19236E+02      982.00
  0.74346E+00  0.66322E+02    0.43750E+00  0.43750E+00 -0.87500E+00  0.00000E+00  0.00000E+00  0.00000E+00    0.16729E+02  0.21366E+02 -0.38096E+02 -0.21359E+01  0.12710E+01  0.19136E+02      982.00
  0.76500E+00  0.66393E+02    0.45000E+00  0.45000E+00 -0.90000E+00  0.00000E+00  0.00000E+00  0.00000E+00    0.16839E+02  0.21372E+02 -0.38211E+02 -0.21685E+01  0.13339E+01  0.19044E+02      982.00
  0.78659E+00  0.66460E+02    0.46250E+00  0.46250E+00 -0.92500E+00  0.00000E+00  0.00000E+00  0.00000E+00    0.16945E+02  0.21371E+02 -0.38317E+02 -0.21953E+01  0.13899E+01  0.18962E+02      982.00
  0.80821E+00  0.66529E+02    0.47500E+00  0.47500E+00 -0.95000E+00  0.00000E+00  0.00000E+00  0.00000E+00    0.17047E+02  0.21371E+02 -0.38418E+02 -0.22189E+01  0.14446E+01  0.18887E+02      982.00
  0.82986E+00  0.66591E+02    0.48750E+00  0.48750E+00 -0.97500E+00  0.00000E+00  0.00000E+00  0.00000E+00    0.17147E+02  0.21365E+02 -0.38512E+02 -0.22323E+01  0.14845E+01  0.18819E+02      982.00
  0.85155E+00  0.66652E+02    0.50000E+00  0.50000E+00 -0.10000E+01  0.00000E+00  0.00000E+00  0.00000E+00    0.17244E+02  0.21356E+02 -0.38600E+02 -0.22407E+01  0.15178E+01  0.18757E+02      982.00
