          Evm          Svm            E11          E22          E33          E23          E13          E12         SDEV11       SDEV22       SDEV33       SDEV23       SDEV13       SDEV12      TEMP
  0.00000E+00  0.57627E+02    0.00000E+00  0.00000E+00  0.00000E+00  0.00000E+00  0.00000E+00  0.00000E+00    0.12981E+02  0.22607E+02 -0.35588E+02 -0.48673E+01 -0.35794E+01 -0.98692E+01      982.00
  0.23159E-01  0.57998E+02    0.12500E-01  0.12500E-01 -0.25000E-01  0.00000E+00  0.00000E+00  0.00000E+00    0.13597E+02  0.22219E+02 -0.35816E+02 -0.47659E+01 -0.41391E+01 -0.10037E+02      982.00
  0.46316E-01  0.58211E+02    0.25000E-01  0.25000E-01 -0.50000E-01  0.00000E+00  0.00000E+00  0.00000E+00    0.14084E+02  0.21887E+02 -0.35972E+02 -0.47489E+01 -0.44446E+01 -0.10075E+02      982.00
  0.69489E-01  0.58428E+02    0.37500E-01  0.37500E-01 -0.75000E-01  0.00000E+00  0.00000E+00  0.00000E+00    0.14455E+02  0.21677E+02 -0.36133E+02 -0.48578E+01 -0.45579E+01 -0.10067E+02      982.00
  0.92680E-01  0.58695E+02    0.50000E-01  0.50000E-01 -0.10000E+00  0.00000E+00  0.00000E+00  0.00000E+00    0.14729E+02  0.21593E+02 -0.36322E+02 -0.50257E+01 -0.45602E+01 -0.10052E+02      982.00
  0.11589E+00  0.58971E+02    0.62500E-01  0.62500E-01 -0.12500E+00  0.00000E+00  0.00000E+00  0.00000E+00    0.14921E+02  0.21601E+02 -0.36522E+02 -0.51970E+01 -0.44959E+01 -0.10021E+02      982.00
  0.13911E+00  0.59286E+02    0.75000E-01  0.75000E-01 -0.15000E+00  0.00000E+00  0.00000E+00  0.00000E+00    0.15088E+02  0.21657E+02 -0.36745E+02 -0.53178E+01 -0.44463E+01 -0.10006E+02      982.00
  0.16235E+00  0.59626E+02    0.87500E-01  0.87500E-01 -0.17500E+00  0.00000E+00  0.00000E+00  0.00000E+00    0.15229E+02  0.21754E+02 -0.36983E+02 -0.54084E+01 -0.44004E+01 -0.10002E+02      982.00
  0.18561E+00  0.59987E+02    0.10000E+00  0.10000E+00 -0.20000E+00  0.00000E+00  0.00000E+00  0.00000E+00    0.15345E+02  0.21889E+02 -0.37233E+02 -0.54641E+01 -0.43608E+01 -0.10008E+02      982.00
  0.20889E+00  0.60370E+02    0.11250E+00  0.11250E+00 -0.22500E+00  0.00000E+00  0.00000E+00  0.00000E+00    0.15451E+02  0.22047E+02 -0.37497E+02 -0.54882E+01 -0.43356E+01 -0.10026E+02      982.00
  0.23218E+00  0.60762E+02    0.12500E+00  0.12500E+00 -0.25000E+00  0.00000E+00  0.00000E+00  0.00000E+00    0.15540E+02  0.22228E+02 -0.37768E+02 -0.54875E+01 -0.43161E+01 -0.10047E+02      982.00
  0.25549E+00  0.61172E+02    0.13750E+00  0.13750E+00 -0.27500E+00  0.00000E+00  0.00000E+00  0.00000E+00    0.15627E+02  0.22422E+02 -0.38049E+02 -0.54657E+01 -0.43103E+01 -0.10077E+02      982.00
  0.27881E+00  0.61580E+02    0.15000E+00  0.15000E+00 -0.30000E+00  0.00000E+00  0.00000E+00  0.00000E+00    0.15700E+02  0.22629E+02 -0.38330E+02 -0.54290E+01 -0.43089E+01 -0.10106E+02      982.00
  0.30216E+00  0.61998E+02    0.16250E+00  0.16250E+00 -0.32500E+00  0.00000E+00  0.00000E+00  0.00000E+00    0.15776E+02  0.22840E+02 -0.38617E+02 -0.53793E+01 -0.43186E+01 -0.10137E+02      982.00
  0.32551E+00  0.62410E+02    0.17500E+00  0.17500E+00 -0.35000E+00  0.00000E+00  0.00000E+00  0.00000E+00    0.15840E+02  0.23060E+02 -0.38901E+02 -0.53212E+01 -0.43317E+01 -0.10162E+02      982.00
  0.34889E+00  0.62819E+02    0.18750E+00  0.18750E+00 -0.37500E+00  0.00000E+00  0.00000E+00  0.00000E+00    0.15908E+02  0.23276E+02 -0.39184E+02 -0.52560E+01 -0.43524E+01 -0.10184E+02      982.00
  0.37228E+00  0.63223E+02    0.20000E+00  0.20000E+00 -0.40000E+00  0.00000E+00  0.00000E+00  0.00000E+00    0.15964E+02  0.23502E+02 -0.39466E+02 -0.51840E+01 -0.43764E+01 -0.10197E+02      982.00
  0.39569E+00  0.63611E+02    0.21250E+00  0.21250E+00 -0.42500E+00  0.00000E+00  0.00000E+00  0.00000E+00    0.16024E+02  0.23715E+02 -0.39738E+02 -0.51109E+01 -0.44037E+01 -0.10203E+02      982.00
  0.41911E+00  0.63984E+02    0.22500E+00  0.22500E+00 -0.45000E+00  0.00000E+00  0.00000E+00  0.00000E+00    0.16080E+02  0.23923E+02 -0.40003E+02 -0.50361E+01 -0.44329E+01 -0.10202E+02      982.00
  0.44256E+00  0.64351E+02    0.23750E+00  0.23750E+00 -0.47500E+00  0.00000E+00  0.00000E+00  0.00000E+00    0.16122E+02  0.24145E+02 -0.40267E+02 -0.49509E+01 -0.44644E+01 -0.10186E+02      982.00
  0.46602E+00  0.64691E+02    0.25000E+00  0.25000E+00 -0.50000E+00  0.00000E+00  0.00000E+00  0.00000E+00    0.16167E+02  0.24345E+02 -0.40512E+02 -0.48744E+01 -0.44949E+01 -0.10168E+02      982.00
  0.48951E+00  0.65015E+02    0.26250E+00  0.26250E+00 -0.52500E+00  0.00000E+00  0.00000E+00  0.00000E+00    0.16208E+02  0.24539E+02 -0.40747E+02 -0.47986E+01 -0.45254E+01 -0.10142E+02      982.00
  0.51301E+00  0.65322E+02    0.27500E+00  0.27500E+00 -0.55000E+00  0.00000E+00  0.00000E+00  0.00000E+00    0.16243E+02  0.24729E+02 -0.40973E+02 -0.47236E+01 -0.45559E+01 -0.10110E+02      982.00
  0.53653E+00  0.65602E+02    0.28750E+00  0.28750E+00 -0.57500E+00  0.00000E+00  0.00000E+00  0.00000E+00    0.16273E+02  0.24903E+02 -0.41177E+02 -0.46605E+01 -0.45846E+01 -0.10076E+02      982.00
  0.56007E+00  0.65876E+02    0.30000E+00  0.30000E+00 -0.60000E+00  0.00000E+00  0.00000E+00  0.00000E+00    0.16298E+02  0.25083E+02 -0.41381E+02 -0.45873E+01 -0.46116E+01 -0.10031E+02      982.00
  0.58363E+00  0.66133E+02    0.31250E+00  0.31250E+00 -0.62500E+00  0.00000E+00  0.00000E+00  0.00000E+00    0.16318E+02  0.25258E+02 -0.41576E+02 -0.45153E+01 -0.46373E+01 -0.99786E+01      982.00
  0.60720E+00  0.66376E+02    0.32500E+00  0.32500E+00 -0.65000E+00  0.00000E+00  0.00000E+00  0.00000E+00    0.16332E+02  0.25429E+02 -0.41761E+02 -0.44445E+01 -0.46614E+01 -0.99214E+01      982.00
  0.63079E+00  0.66603E+02    0.33750E+00  0.33750E+00 -0.67500E+00  0.00000E+00  0.00000E+00  0.00000E+00    0.16341E+02  0.25594E+02 -0.41936E+02 -0.43750E+01 -0.46841E+01 -0.98594E+01      982.00
  0.65441E+00  0.66815E+02    0.35000E+00  0.35000E+00 -0.70000E+00  0.00000E+00  0.00000E+00  0.00000E+00    0.16346E+02  0.25755E+02 -0.42101E+02 -0.43070E+01 -0.47052E+01 -0.97931E+01      982.00
  0.67804E+00  0.67014E+02    0.36250E+00  0.36250E+00 -0.72500E+00  0.00000E+00  0.00000E+00  0.00000E+00    0.16345E+02  0.25912E+02 -0.42257E+02 -0.42404E+01 -0.47249E+01 -0.97230E+01      982.00
  0.70168E+00  0.67200E+02    0.37500E+00  0.37500E+00 -0.75000E+00  0.00000E+00  0.00000E+00  0.00000E+00    0.16340E+02  0.26064E+02 -0.42404E+02 -0.41753E+01 -0.47431E+01 -0.96497E+01      982.00
  0.72534E+00  0.67374E+02    0.38750E+00  0.38750E+00 -0.77500E+00  0.00000E+00  0.00000E+00  0.00000E+00    0.16331E+02  0.26213E+02 -0.42543E+02 -0.41116E+01 -0.47599E+01 -0.95735E+01      982.00
  0.74902E+00  0.67536E+02    0.40000E+00  0.40000E+00 -0.80000E+00  0.00000E+00  0.00000E+00  0.00000E+00    0.16317E+02  0.26357E+02 -0.42674E+02 -0.40495E+01 -0.47754E+01 -0.94949E+01      982.00
  0.77272E+00  0.67687E+02    0.41250E+00  0.41250E+00 -0.82500E+00  0.00000E+00  0.00000E+00  0.00000E+00    0.16300E+02  0.26498E+02 -0.42797E+02 -0.39888E+01 -0.47897E+01 -0.94142E+01      982.00
  0.79643E+00  0.67829E+02    0.42500E+00  0.42500E+00 -0.85000E+00  0.00000E+00  0.00000E+00  0.00000E+00    0.16279E+02  0.26635E+02 -0.42913E+02 -0.39297E+01 -0.48030E+01 -0.93319E+01      982.00
  0.82016E+00  0.67960E+02    0.43750E+00  0.43750E+00 -0.87500E+00  0.00000E+00  0.00000E+00  0.00000E+00    0.16254E+02  0.26768E+02 -0.43022E+02 -0.38721E+01 -0.48152E+01 -0.92482E+01      982.00
  0.84389E+00  0.68083E+02    0.45000E+00  0.45000E+00 -0.90000E+00  0.00000E+00  0.00000E+00  0.00000E+00    0.16227E+02  0.26898E+02 -0.43125E+02 -0.38159E+01 -0.48265E+01 -0.91634E+01      982.00
  0.86765E+00  0.68198E+02    0.46250E+00  0.46250E+00 -0.92500E+00  0.00000E+00  0.00000E+00  0.00000E+00    0.16196E+02  0.27025E+02 -0.43221E+02 -0.37612E+01 -0.48369E+01 -0.90778E+01      982.00
  0.89141E+00  0.68247E+02    0.47500E+00  0.47500E+00 -0.95000E+00  0.00000E+00  0.00000E+00  0.00000E+00    0.16167E+02  0.27111E+02 -0.43278E+02 -0.36955E+01 -0.48252E+01 -0.89937E+01      982.00
  0.91519E+00  0.68293E+02    0.48750E+00  0.48750E+00 -0.97500E+00  0.00000E+00  0.00000E+00  0.00000E+00    0.16129E+02  0.27205E+02 -0.43334E+02 -0.36289E+01 -0.48175E+01 -0.89011E+01      982.00
  0.93899E+00  0.68336E+02    0.50000E+00  0.50000E+00 -0.10000E+01  0.00000E+00  0.00000E+00  0.00000E+00    0.16089E+02  0.27297E+02 -0.43386E+02 -0.35642E+01 -0.48098E+01 -0.88101E+01      982.00
