          Evm          Svm            E11          E22          E33          E23          E13          E12         SDEV11       SDEV22       SDEV33       SDEV23       SDEV13       SDEV12      TEMP
  0.00000E+00  0.58041E+02    0.00000E+00  0.00000E+00  0.00000E+00  0.00000E+00  0.00000E+00  0.00000E+00    0.16248E+02  0.20847E+02 -0.37095E+02 -0.57508E+00 -0.88349E+01  0.26907E+01      982.00
  0.23967E-01  0.58442E+02    0.12500E-01  0.12500E-01 -0.25000E-01  0.00000E+00  0.00000E+00  0.00000E+00    0.15623E+02  0.21676E+02 -0.37300E+02 -0.12211E+01 -0.87817E+01  0.26906E+01      982.00
  0.47901E-01  0.58730E+02    0.25000E-01  0.25000E-01 -0.50000E-01  0.00000E+00  0.00000E+00  0.00000E+00    0.15015E+02  0.22422E+02 -0.37437E+02 -0.17676E+01 -0.86778E+01  0.25459E+01      982.00
  0.71804E-01  0.58810E+02    0.37500E-01  0.37500E-01 -0.75000E-01  0.00000E+00  0.00000E+00  0.00000E+00    0.14555E+02  0.22934E+02 -0.37489E+02 -0.21006E+01 -0.84581E+01  0.23037E+01      982.00
  0.95709E-01  0.58771E+02    0.50000E-01  0.50000E-01 -0.10000E+00  0.00000E+00  0.00000E+00  0.00000E+00    0.14250E+02  0.23258E+02 -0.37508E+02 -0.22383E+01 -0.81807E+01  0.19904E+01      982.00
  0.11964E+00  0.58676E+02    0.62500E-01  0.62500E-01 -0.12500E+00  0.00000E+00  0.00000E+00  0.00000E+00    0.14051E+02  0.23461E+02 -0.37511E+02 -0.22598E+01 -0.79010E+01  0.16157E+01      982.00
  0.14362E+00  0.58555E+02    0.75000E-01  0.75000E-01 -0.15000E+00  0.00000E+00  0.00000E+00  0.00000E+00    0.13933E+02  0.23571E+02 -0.37503E+02 -0.22160E+01 -0.76440E+01  0.11964E+01      982.00
  0.16763E+00  0.58423E+02    0.87500E-01  0.87500E-01 -0.17500E+00  0.00000E+00  0.00000E+00  0.00000E+00    0.13874E+02  0.23612E+02 -0.37486E+02 -0.21412E+01 -0.74185E+01  0.74264E+00      982.00
  0.19170E+00  0.58281E+02    0.10000E+00  0.10000E+00 -0.20000E+00  0.00000E+00  0.00000E+00  0.00000E+00    0.13866E+02  0.23589E+02 -0.37455E+02 -0.20603E+01 -0.72194E+01  0.28489E+00      982.00
  0.21579E+00  0.58143E+02    0.11250E+00  0.11250E+00 -0.22500E+00  0.00000E+00  0.00000E+00  0.00000E+00    0.13899E+02  0.23519E+02 -0.37417E+02 -0.19675E+01 -0.70540E+01 -0.20280E+00      982.00
  0.23993E+00  0.58006E+02    0.12500E+00  0.12500E+00 -0.25000E+00  0.00000E+00  0.00000E+00  0.00000E+00    0.13970E+02  0.23403E+02 -0.37373E+02 -0.18695E+01 -0.69126E+01 -0.70454E+00      982.00
  0.26409E+00  0.57873E+02    0.13750E+00  0.13750E+00 -0.27500E+00  0.00000E+00  0.00000E+00  0.00000E+00    0.14082E+02  0.23240E+02 -0.37322E+02 -0.17536E+01 -0.67937E+01 -0.12349E+01      982.00
  0.28827E+00  0.57743E+02    0.15000E+00  0.15000E+00 -0.30000E+00  0.00000E+00  0.00000E+00  0.00000E+00    0.14227E+02  0.23037E+02 -0.37264E+02 -0.16237E+01 -0.66871E+01 -0.17861E+01      982.00
  0.31247E+00  0.57618E+02    0.16250E+00  0.16250E+00 -0.32500E+00  0.00000E+00  0.00000E+00  0.00000E+00    0.14408E+02  0.22792E+02 -0.37200E+02 -0.14696E+01 -0.65873E+01 -0.23659E+01      982.00
  0.33668E+00  0.57501E+02    0.17500E+00  0.17500E+00 -0.35000E+00  0.00000E+00  0.00000E+00  0.00000E+00    0.14627E+02  0.22503E+02 -0.37131E+02 -0.12815E+01 -0.64875E+01 -0.29764E+01      982.00
  0.36090E+00  0.57400E+02    0.18750E+00  0.18750E+00 -0.37500E+00  0.00000E+00  0.00000E+00  0.00000E+00    0.14873E+02  0.22185E+02 -0.37058E+02 -0.10635E+01 -0.63795E+01 -0.36139E+01      982.00
  0.38511E+00  0.57323E+02    0.20000E+00  0.20000E+00 -0.40000E+00  0.00000E+00  0.00000E+00  0.00000E+00    0.15149E+02  0.21838E+02 -0.36987E+02 -0.80650E+00 -0.62579E+01 -0.42780E+01      982.00
  0.40931E+00  0.57281E+02    0.21250E+00  0.21250E+00 -0.42500E+00  0.00000E+00  0.00000E+00  0.00000E+00    0.15455E+02  0.21466E+02 -0.36921E+02 -0.50787E+00 -0.61177E+01 -0.49645E+01      982.00
  0.43348E+00  0.57285E+02    0.22500E+00  0.22500E+00 -0.45000E+00  0.00000E+00  0.00000E+00  0.00000E+00    0.15783E+02  0.21082E+02 -0.36865E+02 -0.17155E+00 -0.59550E+01 -0.56660E+01      982.00
  0.45761E+00  0.57346E+02    0.23750E+00  0.23750E+00 -0.47500E+00  0.00000E+00  0.00000E+00  0.00000E+00    0.16125E+02  0.20699E+02 -0.36824E+02  0.19387E+00 -0.57680E+01 -0.63726E+01      982.00
  0.48169E+00  0.57469E+02    0.25000E+00  0.25000E+00 -0.50000E+00  0.00000E+00  0.00000E+00  0.00000E+00    0.16486E+02  0.20319E+02 -0.36805E+02  0.59031E+00 -0.55566E+01 -0.70762E+01      982.00
  0.50571E+00  0.57660E+02    0.26250E+00  0.26250E+00 -0.52500E+00  0.00000E+00  0.00000E+00  0.00000E+00    0.16857E+02  0.19953E+02 -0.36809E+02  0.10059E+01 -0.53225E+01 -0.77655E+01      982.00
  0.52965E+00  0.57918E+02    0.27500E+00  0.27500E+00 -0.55000E+00  0.00000E+00  0.00000E+00  0.00000E+00    0.17231E+02  0.19610E+02 -0.36841E+02  0.14288E+01 -0.50685E+01 -0.84296E+01      982.00
  0.55350E+00  0.58237E+02    0.28750E+00  0.28750E+00 -0.57500E+00  0.00000E+00  0.00000E+00  0.00000E+00    0.17605E+02  0.19297E+02 -0.36901E+02  0.18498E+01 -0.47987E+01 -0.90601E+01      982.00
  0.57726E+00  0.58610E+02    0.30000E+00  0.30000E+00 -0.60000E+00  0.00000E+00  0.00000E+00  0.00000E+00    0.17975E+02  0.19015E+02 -0.36989E+02  0.22600E+01 -0.45172E+01 -0.96499E+01      982.00
  0.60093E+00  0.59027E+02    0.31250E+00  0.31250E+00 -0.62500E+00  0.00000E+00  0.00000E+00  0.00000E+00    0.18338E+02  0.18766E+02 -0.37104E+02  0.26516E+01 -0.42283E+01 -0.10194E+02      982.00
  0.62450E+00  0.59479E+02    0.32500E+00  0.32500E+00 -0.65000E+00  0.00000E+00  0.00000E+00  0.00000E+00    0.18697E+02  0.18547E+02 -0.37243E+02  0.30237E+01 -0.39347E+01 -0.10691E+02      982.00
  0.64798E+00  0.59951E+02    0.33750E+00  0.33750E+00 -0.67500E+00  0.00000E+00  0.00000E+00  0.00000E+00    0.19041E+02  0.18363E+02 -0.37404E+02  0.33629E+01 -0.36419E+01 -0.11138E+02      982.00
  0.67138E+00  0.60438E+02    0.35000E+00  0.35000E+00 -0.70000E+00  0.00000E+00  0.00000E+00  0.00000E+00    0.19375E+02  0.18209E+02 -0.37584E+02  0.36718E+01 -0.33516E+01 -0.11537E+02      982.00
  0.69470E+00  0.60931E+02    0.36250E+00  0.36250E+00 -0.72500E+00  0.00000E+00  0.00000E+00  0.00000E+00    0.19703E+02  0.18077E+02 -0.37780E+02  0.39547E+01 -0.30644E+01 -0.11890E+02      982.00
  0.71795E+00  0.61422E+02    0.37500E+00  0.37500E+00 -0.75000E+00  0.00000E+00  0.00000E+00  0.00000E+00    0.20016E+02  0.17973E+02 -0.37989E+02  0.42007E+01 -0.27861E+01 -0.12197E+02      982.00
  0.74114E+00  0.61908E+02    0.38750E+00  0.38750E+00 -0.77500E+00  0.00000E+00  0.00000E+00  0.00000E+00    0.20321E+02  0.17887E+02 -0.38208E+02  0.44184E+01 -0.25154E+01 -0.12462E+02      982.00
  0.76429E+00  0.62385E+02    0.40000E+00  0.40000E+00 -0.80000E+00  0.00000E+00  0.00000E+00  0.00000E+00    0.20622E+02  0.17814E+02 -0.38436E+02  0.46132E+01 -0.22510E+01 -0.12688E+02      982.00
  0.78739E+00  0.62848E+02    0.41250E+00  0.41250E+00 -0.82500E+00  0.00000E+00  0.00000E+00  0.00000E+00    0.20911E+02  0.17759E+02 -0.38670E+02  0.47771E+01 -0.19992E+01 -0.12877E+02      982.00
  0.81046E+00  0.63298E+02    0.42500E+00  0.42500E+00 -0.85000E+00  0.00000E+00  0.00000E+00  0.00000E+00    0.21193E+02  0.17714E+02 -0.38908E+02  0.49174E+01 -0.17579E+01 -0.13034E+02      982.00
  0.83351E+00  0.63732E+02    0.43750E+00  0.43750E+00 -0.87500E+00  0.00000E+00  0.00000E+00  0.00000E+00    0.21469E+02  0.17679E+02 -0.39149E+02  0.50354E+01 -0.15283E+01 -0.13159E+02      982.00
  0.85655E+00  0.64150E+02    0.45000E+00  0.45000E+00 -0.90000E+00  0.00000E+00  0.00000E+00  0.00000E+00    0.21744E+02  0.17646E+02 -0.39390E+02  0.51393E+01 -0.13043E+01 -0.13255E+02      982.00
  0.87957E+00  0.64550E+02    0.46250E+00  0.46250E+00 -0.92500E+00  0.00000E+00  0.00000E+00  0.00000E+00    0.22011E+02  0.17622E+02 -0.39632E+02  0.52217E+01 -0.10954E+01 -0.13326E+02      982.00
  0.90260E+00  0.64934E+02    0.47500E+00  0.47500E+00 -0.95000E+00  0.00000E+00  0.00000E+00  0.00000E+00    0.22273E+02  0.17600E+02 -0.39873E+02  0.52887E+01 -0.89743E+00 -0.13373E+02      982.00
  0.92563E+00  0.65301E+02    0.48750E+00  0.48750E+00 -0.97500E+00  0.00000E+00  0.00000E+00  0.00000E+00    0.22531E+02  0.17580E+02 -0.40112E+02  0.53424E+01 -0.71019E+00 -0.13399E+02      982.00
  0.94866E+00  0.65651E+02    0.50000E+00  0.50000E+00 -0.10000E+01  0.00000E+00  0.00000E+00  0.00000E+00    0.22785E+02  0.17562E+02 -0.40347E+02  0.53842E+01 -0.53344E+00 -0.13404E+02      982.00
