          Evm          Svm            E11          E22          E33          E23          E13          E12         SDEV11       SDEV22       SDEV33       SDEV23       SDEV13       SDEV12      TEMP
  0.00000E+00  0.57494E+02    0.00000E+00  0.00000E+00  0.00000E+00  0.00000E+00  0.00000E+00  0.00000E+00    0.22361E+02  0.14736E+02 -0.37097E+02 -0.45380E+01  0.38640E+01  0.44302E+01      982.00
  0.24197E-01  0.57347E+02    0.12500E-01  0.12500E-01 -0.25000E-01  0.00000E+00  0.00000E+00  0.00000E+00    0.21900E+02  0.15118E+02 -0.37018E+02 -0.46710E+01  0.38988E+01  0.44692E+01      982.00
  0.48403E-01  0.57334E+02    0.25000E-01  0.25000E-01 -0.50000E-01  0.00000E+00  0.00000E+00  0.00000E+00    0.21372E+02  0.15644E+02 -0.37017E+02 -0.48684E+01  0.38952E+01  0.45788E+01      982.00
  0.72614E-01  0.57458E+02    0.37500E-01  0.37500E-01 -0.75000E-01  0.00000E+00  0.00000E+00  0.00000E+00    0.20760E+02  0.16322E+02 -0.37082E+02 -0.51509E+01  0.38407E+01  0.47895E+01      982.00
  0.96816E-01  0.57657E+02    0.50000E-01  0.50000E-01 -0.10000E+00  0.00000E+00  0.00000E+00  0.00000E+00    0.20095E+02  0.17074E+02 -0.37169E+02 -0.54778E+01  0.37303E+01  0.50738E+01      982.00
  0.12099E+00  0.57837E+02    0.62500E-01  0.62500E-01 -0.12500E+00  0.00000E+00  0.00000E+00  0.00000E+00    0.19434E+02  0.17799E+02 -0.37233E+02 -0.57576E+01  0.35574E+01  0.53694E+01      982.00
  0.14513E+00  0.57956E+02    0.75000E-01  0.75000E-01 -0.15000E+00  0.00000E+00  0.00000E+00  0.00000E+00    0.18849E+02  0.18425E+02 -0.37275E+02 -0.59003E+01  0.33243E+01  0.56270E+01      982.00
  0.16925E+00  0.58031E+02    0.87500E-01  0.87500E-01 -0.17500E+00  0.00000E+00  0.00000E+00  0.00000E+00    0.18356E+02  0.18952E+02 -0.37308E+02 -0.59123E+01  0.30391E+01  0.58591E+01      982.00
  0.19336E+00  0.58082E+02    0.10000E+00  0.10000E+00 -0.20000E+00  0.00000E+00  0.00000E+00  0.00000E+00    0.17945E+02  0.19395E+02 -0.37340E+02 -0.58281E+01  0.27183E+01  0.60752E+01      982.00
  0.21747E+00  0.58119E+02    0.11250E+00  0.11250E+00 -0.22500E+00  0.00000E+00  0.00000E+00  0.00000E+00    0.17604E+02  0.19767E+02 -0.37370E+02 -0.56843E+01  0.23820E+01  0.62749E+01      982.00
  0.24158E+00  0.58156E+02    0.12500E+00  0.12500E+00 -0.25000E+00  0.00000E+00  0.00000E+00  0.00000E+00    0.17306E+02  0.20095E+02 -0.37400E+02 -0.55152E+01  0.20380E+01  0.64630E+01      982.00
  0.26570E+00  0.58197E+02    0.13750E+00  0.13750E+00 -0.27500E+00  0.00000E+00  0.00000E+00  0.00000E+00    0.17037E+02  0.20393E+02 -0.37430E+02 -0.53406E+01  0.16939E+01  0.66362E+01      982.00
  0.28981E+00  0.58245E+02    0.15000E+00  0.15000E+00 -0.30000E+00  0.00000E+00  0.00000E+00  0.00000E+00    0.16781E+02  0.20677E+02 -0.37458E+02 -0.51730E+01  0.13506E+01  0.67921E+01      982.00
  0.31393E+00  0.58295E+02    0.16250E+00  0.16250E+00 -0.32500E+00  0.00000E+00  0.00000E+00  0.00000E+00    0.16546E+02  0.20937E+02 -0.37483E+02 -0.50197E+01  0.10223E+01  0.69236E+01      982.00
  0.33804E+00  0.58343E+02    0.17500E+00  0.17500E+00 -0.35000E+00  0.00000E+00  0.00000E+00  0.00000E+00    0.16324E+02  0.21180E+02 -0.37505E+02 -0.48864E+01  0.70828E+00  0.70300E+01      982.00
  0.36215E+00  0.58387E+02    0.18750E+00  0.18750E+00 -0.37500E+00  0.00000E+00  0.00000E+00  0.00000E+00    0.16115E+02  0.21405E+02 -0.37520E+02 -0.47772E+01  0.41236E+00  0.71100E+01      982.00
  0.38625E+00  0.58424E+02    0.20000E+00  0.20000E+00 -0.40000E+00  0.00000E+00  0.00000E+00  0.00000E+00    0.15914E+02  0.21614E+02 -0.37528E+02 -0.46954E+01  0.13496E+00  0.71638E+01      982.00
  0.41034E+00  0.58449E+02    0.21250E+00  0.21250E+00 -0.42500E+00  0.00000E+00  0.00000E+00  0.00000E+00    0.15726E+02  0.21802E+02 -0.37528E+02 -0.46405E+01 -0.12042E+00  0.71904E+01      982.00
  0.43441E+00  0.58453E+02    0.22500E+00  0.22500E+00 -0.45000E+00  0.00000E+00  0.00000E+00  0.00000E+00    0.15563E+02  0.21953E+02 -0.37516E+02 -0.46160E+01 -0.34400E+00  0.71884E+01      982.00
  0.45848E+00  0.58439E+02    0.23750E+00  0.23750E+00 -0.47500E+00  0.00000E+00  0.00000E+00  0.00000E+00    0.15408E+02  0.22086E+02 -0.37494E+02 -0.46173E+01 -0.54900E+00  0.71595E+01      982.00
  0.48254E+00  0.58395E+02    0.25000E+00  0.25000E+00 -0.50000E+00  0.00000E+00  0.00000E+00  0.00000E+00    0.15279E+02  0.22177E+02 -0.37456E+02 -0.46476E+01 -0.72300E+00  0.71015E+01      982.00
  0.50659E+00  0.58321E+02    0.26250E+00  0.26250E+00 -0.52500E+00  0.00000E+00  0.00000E+00  0.00000E+00    0.15164E+02  0.22238E+02 -0.37403E+02 -0.47017E+01 -0.87544E+00  0.70132E+01      982.00
  0.53064E+00  0.58215E+02    0.27500E+00  0.27500E+00 -0.55000E+00  0.00000E+00  0.00000E+00  0.00000E+00    0.15054E+02  0.22278E+02 -0.37332E+02 -0.47748E+01 -0.10141E+01  0.68914E+01      982.00
  0.55469E+00  0.58069E+02    0.28750E+00  0.28750E+00 -0.57500E+00  0.00000E+00  0.00000E+00  0.00000E+00    0.14967E+02  0.22276E+02 -0.37243E+02 -0.48683E+01 -0.11277E+01  0.67371E+01      982.00
  0.57874E+00  0.57882E+02    0.30000E+00  0.30000E+00 -0.60000E+00  0.00000E+00  0.00000E+00  0.00000E+00    0.14892E+02  0.22241E+02 -0.37133E+02 -0.49765E+01 -0.12252E+01  0.65457E+01      982.00
  0.60280E+00  0.57646E+02    0.31250E+00  0.31250E+00 -0.62500E+00  0.00000E+00  0.00000E+00  0.00000E+00    0.14822E+02  0.22178E+02 -0.37000E+02 -0.50944E+01 -0.13126E+01  0.63044E+01      982.00
  0.62687E+00  0.57356E+02    0.32500E+00  0.32500E+00 -0.65000E+00  0.00000E+00  0.00000E+00  0.00000E+00    0.14766E+02  0.22075E+02 -0.36841E+02 -0.52206E+01 -0.13867E+01  0.60106E+01      982.00
  0.65096E+00  0.57013E+02    0.33750E+00  0.33750E+00 -0.67500E+00  0.00000E+00  0.00000E+00  0.00000E+00    0.14742E+02  0.21917E+02 -0.36659E+02 -0.53358E+01 -0.14221E+01  0.56774E+01      982.00
  0.67507E+00  0.56649E+02    0.35000E+00  0.35000E+00 -0.70000E+00  0.00000E+00  0.00000E+00  0.00000E+00    0.14732E+02  0.21732E+02 -0.36464E+02 -0.54538E+01 -0.14472E+01  0.53306E+01      982.00
  0.69921E+00  0.56212E+02    0.36250E+00  0.36250E+00 -0.72500E+00  0.00000E+00  0.00000E+00  0.00000E+00    0.14727E+02  0.21506E+02 -0.36233E+02 -0.55655E+01 -0.14626E+01  0.49002E+01      982.00
  0.72338E+00  0.55721E+02    0.37500E+00  0.37500E+00 -0.75000E+00  0.00000E+00  0.00000E+00  0.00000E+00    0.14738E+02  0.21239E+02 -0.35977E+02 -0.56626E+01 -0.14560E+01  0.44096E+01      982.00
  0.74759E+00  0.55187E+02    0.38750E+00  0.38750E+00 -0.77500E+00  0.00000E+00  0.00000E+00  0.00000E+00    0.14782E+02  0.20922E+02 -0.35704E+02 -0.57210E+01 -0.14168E+01  0.38667E+01      982.00
  0.77185E+00  0.54617E+02    0.40000E+00  0.40000E+00 -0.80000E+00  0.00000E+00  0.00000E+00  0.00000E+00    0.14855E+02  0.20561E+02 -0.35415E+02 -0.57448E+01 -0.13497E+01  0.32722E+01      982.00
  0.79617E+00  0.54011E+02    0.41250E+00  0.41250E+00 -0.82500E+00  0.00000E+00  0.00000E+00  0.00000E+00    0.14962E+02  0.20148E+02 -0.35110E+02 -0.57202E+01 -0.12491E+01  0.26146E+01      982.00
  0.82054E+00  0.53387E+02    0.42500E+00  0.42500E+00 -0.85000E+00  0.00000E+00  0.00000E+00  0.00000E+00    0.15113E+02  0.19687E+02 -0.34800E+02 -0.56317E+01 -0.11068E+01  0.19005E+01      982.00
  0.84499E+00  0.52769E+02    0.43750E+00  0.43750E+00 -0.87500E+00  0.00000E+00  0.00000E+00  0.00000E+00    0.15312E+02  0.19181E+02 -0.34493E+02 -0.54729E+01 -0.92216E+00  0.11380E+01      982.00
  0.86950E+00  0.52178E+02    0.45000E+00  0.45000E+00 -0.90000E+00  0.00000E+00  0.00000E+00  0.00000E+00    0.15562E+02  0.18636E+02 -0.34198E+02 -0.52366E+01 -0.69382E+00  0.33275E+00      982.00
  0.89408E+00  0.51644E+02    0.46250E+00  0.46250E+00 -0.92500E+00  0.00000E+00  0.00000E+00  0.00000E+00    0.15863E+02  0.18062E+02 -0.33925E+02 -0.49214E+01 -0.42287E+00 -0.50321E+00      982.00
  0.91871E+00  0.51196E+02    0.47500E+00  0.47500E+00 -0.95000E+00  0.00000E+00  0.00000E+00  0.00000E+00    0.16222E+02  0.17463E+02 -0.33684E+02 -0.45197E+01 -0.10821E+00 -0.13627E+01      982.00
  0.94339E+00  0.50861E+02    0.48750E+00  0.48750E+00 -0.97500E+00  0.00000E+00  0.00000E+00  0.00000E+00    0.16634E+02  0.16851E+02 -0.33485E+02 -0.40343E+01  0.24690E+00 -0.22335E+01      982.00
  0.96808E+00  0.50644E+02    0.50000E+00  0.50000E+00 -0.10000E+01  0.00000E+00  0.00000E+00  0.00000E+00    0.17084E+02  0.16238E+02 -0.33322E+02 -0.34763E+01  0.61597E+00 -0.30913E+01      982.00
