          Evm          Svm            E11          E22          E33          E23          E13          E12         SDEV11       SDEV22       SDEV33       SDEV23       SDEV13       SDEV12      TEMP
  0.00000E+00  0.64649E+02    0.00000E+00  0.00000E+00  0.00000E+00  0.00000E+00  0.00000E+00  0.00000E+00    0.19197E+02  0.22713E+02 -0.41909E+02  0.16110E+01  0.51812E+01 -0.65844E+01      982.00
  0.24310E-01  0.64612E+02    0.12500E-01  0.12500E-01 -0.25000E-01  0.00000E+00  0.00000E+00  0.00000E+00    0.18854E+02  0.23079E+02 -0.41933E+02  0.16231E+01  0.49014E+01 -0.64520E+01      982.00
  0.48647E-01  0.64489E+02    0.25000E-01  0.25000E-01 -0.50000E-01  0.00000E+00  0.00000E+00  0.00000E+00    0.18625E+02  0.23290E+02 -0.41915E+02  0.16142E+01  0.46475E+01 -0.62425E+01      982.00
  0.73021E-01  0.64340E+02    0.37500E-01  0.37500E-01 -0.75000E-01  0.00000E+00  0.00000E+00  0.00000E+00    0.18440E+02  0.23443E+02 -0.41883E+02  0.16910E+01  0.43728E+01 -0.59987E+01      982.00
  0.97432E-01  0.64274E+02    0.50000E-01  0.50000E-01 -0.10000E+00  0.00000E+00  0.00000E+00  0.00000E+00    0.18284E+02  0.23608E+02 -0.41892E+02  0.18820E+01  0.41130E+01 -0.57715E+01      982.00
  0.12187E+00  0.64298E+02    0.62500E-01  0.62500E-01 -0.12500E+00  0.00000E+00  0.00000E+00  0.00000E+00    0.18155E+02  0.23786E+02 -0.41940E+02  0.21314E+01  0.38958E+01 -0.55842E+01      982.00
  0.14633E+00  0.64388E+02    0.75000E-01  0.75000E-01 -0.15000E+00  0.00000E+00  0.00000E+00  0.00000E+00    0.18044E+02  0.23971E+02 -0.42015E+02  0.23857E+01  0.37239E+01 -0.54438E+01      982.00
  0.17080E+00  0.64533E+02    0.87500E-01  0.87500E-01 -0.17500E+00  0.00000E+00  0.00000E+00  0.00000E+00    0.17935E+02  0.24178E+02 -0.42113E+02  0.26180E+01  0.35849E+01 -0.53517E+01      982.00
  0.19528E+00  0.64717E+02    0.10000E+00  0.10000E+00 -0.20000E+00  0.00000E+00  0.00000E+00  0.00000E+00    0.17835E+02  0.24391E+02 -0.42225E+02  0.28127E+01  0.34781E+01 -0.53027E+01      982.00
  0.21974E+00  0.64933E+02    0.11250E+00  0.11250E+00 -0.22500E+00  0.00000E+00  0.00000E+00  0.00000E+00    0.17730E+02  0.24622E+02 -0.42352E+02  0.29703E+01  0.33910E+01 -0.52907E+01      982.00
  0.24420E+00  0.65175E+02    0.12500E+00  0.12500E+00 -0.25000E+00  0.00000E+00  0.00000E+00  0.00000E+00    0.17617E+02  0.24873E+02 -0.42490E+02  0.30948E+01  0.33148E+01 -0.53075E+01      982.00
  0.26865E+00  0.65430E+02    0.13750E+00  0.13750E+00 -0.27500E+00  0.00000E+00  0.00000E+00  0.00000E+00    0.17506E+02  0.25127E+02 -0.42633E+02  0.31884E+01  0.32543E+01 -0.53461E+01      982.00
  0.29308E+00  0.65693E+02    0.15000E+00  0.15000E+00 -0.30000E+00  0.00000E+00  0.00000E+00  0.00000E+00    0.17393E+02  0.25386E+02 -0.42779E+02  0.32575E+01  0.32028E+01 -0.53995E+01      982.00
  0.31750E+00  0.65958E+02    0.16250E+00  0.16250E+00 -0.32500E+00  0.00000E+00  0.00000E+00  0.00000E+00    0.17274E+02  0.25651E+02 -0.42925E+02  0.33082E+01  0.31534E+01 -0.54606E+01      982.00
  0.34191E+00  0.66219E+02    0.17500E+00  0.17500E+00 -0.35000E+00  0.00000E+00  0.00000E+00  0.00000E+00    0.17162E+02  0.25906E+02 -0.43068E+02  0.33424E+01  0.31153E+01 -0.55277E+01      982.00
  0.36630E+00  0.66472E+02    0.18750E+00  0.18750E+00 -0.37500E+00  0.00000E+00  0.00000E+00  0.00000E+00    0.17051E+02  0.26154E+02 -0.43205E+02  0.33647E+01  0.30822E+01 -0.55960E+01      982.00
  0.39067E+00  0.66714E+02    0.20000E+00  0.20000E+00 -0.40000E+00  0.00000E+00  0.00000E+00  0.00000E+00    0.16936E+02  0.26399E+02 -0.43335E+02  0.33794E+01  0.30471E+01 -0.56616E+01      982.00
  0.41503E+00  0.66944E+02    0.21250E+00  0.21250E+00 -0.42500E+00  0.00000E+00  0.00000E+00  0.00000E+00    0.16831E+02  0.26627E+02 -0.43458E+02  0.33861E+01  0.30220E+01 -0.57264E+01      982.00
  0.43937E+00  0.67160E+02    0.22500E+00  0.22500E+00 -0.45000E+00  0.00000E+00  0.00000E+00  0.00000E+00    0.16730E+02  0.26843E+02 -0.43573E+02  0.33878E+01  0.30000E+01 -0.57877E+01      982.00
  0.46370E+00  0.67365E+02    0.23750E+00  0.23750E+00 -0.47500E+00  0.00000E+00  0.00000E+00  0.00000E+00    0.16628E+02  0.27053E+02 -0.43681E+02  0.33869E+01  0.29756E+01 -0.58437E+01      982.00
  0.48802E+00  0.67551E+02    0.25000E+00  0.25000E+00 -0.50000E+00  0.00000E+00  0.00000E+00  0.00000E+00    0.16532E+02  0.27246E+02 -0.43778E+02  0.33828E+01  0.29587E+01 -0.58968E+01      982.00
  0.51232E+00  0.67723E+02    0.26250E+00  0.26250E+00 -0.52500E+00  0.00000E+00  0.00000E+00  0.00000E+00    0.16440E+02  0.27427E+02 -0.43866E+02  0.33772E+01  0.29438E+01 -0.59454E+01      982.00
  0.53661E+00  0.67877E+02    0.27500E+00  0.27500E+00 -0.55000E+00  0.00000E+00  0.00000E+00  0.00000E+00    0.16344E+02  0.27601E+02 -0.43944E+02  0.33731E+01  0.29222E+01 -0.59874E+01      982.00
  0.56089E+00  0.68023E+02    0.28750E+00  0.28750E+00 -0.57500E+00  0.00000E+00  0.00000E+00  0.00000E+00    0.16258E+02  0.27760E+02 -0.44018E+02  0.33662E+01  0.29107E+01 -0.60279E+01      982.00
  0.58516E+00  0.68160E+02    0.30000E+00  0.30000E+00 -0.60000E+00  0.00000E+00  0.00000E+00  0.00000E+00    0.16173E+02  0.27912E+02 -0.44085E+02  0.33595E+01  0.29017E+01 -0.60650E+01      982.00
  0.60941E+00  0.68282E+02    0.31250E+00  0.31250E+00 -0.62500E+00  0.00000E+00  0.00000E+00  0.00000E+00    0.16093E+02  0.28052E+02 -0.44145E+02  0.33526E+01  0.28923E+01 -0.60975E+01      982.00
  0.63365E+00  0.68390E+02    0.32500E+00  0.32500E+00 -0.65000E+00  0.00000E+00  0.00000E+00  0.00000E+00    0.16015E+02  0.28182E+02 -0.44197E+02  0.33477E+01  0.28765E+01 -0.61254E+01      982.00
  0.65789E+00  0.68492E+02    0.33750E+00  0.33750E+00 -0.67500E+00  0.00000E+00  0.00000E+00  0.00000E+00    0.15940E+02  0.28305E+02 -0.44245E+02  0.33420E+01  0.28700E+01 -0.61520E+01      982.00
  0.68211E+00  0.68584E+02    0.35000E+00  0.35000E+00 -0.70000E+00  0.00000E+00  0.00000E+00  0.00000E+00    0.15867E+02  0.28421E+02 -0.44288E+02  0.33369E+01  0.28646E+01 -0.61755E+01      982.00
  0.70633E+00  0.68661E+02    0.36250E+00  0.36250E+00 -0.72500E+00  0.00000E+00  0.00000E+00  0.00000E+00    0.15795E+02  0.28528E+02 -0.44323E+02  0.33365E+01  0.28487E+01 -0.61904E+01      982.00
  0.73054E+00  0.68739E+02    0.37500E+00  0.37500E+00 -0.75000E+00  0.00000E+00  0.00000E+00  0.00000E+00    0.15727E+02  0.28630E+02 -0.44357E+02  0.33329E+01  0.28451E+01 -0.62087E+01      982.00
  0.75473E+00  0.68809E+02    0.38750E+00  0.38750E+00 -0.77500E+00  0.00000E+00  0.00000E+00  0.00000E+00    0.15662E+02  0.28725E+02 -0.44387E+02  0.33300E+01  0.28425E+01 -0.62245E+01      982.00
  0.77893E+00  0.68873E+02    0.40000E+00  0.40000E+00 -0.80000E+00  0.00000E+00  0.00000E+00  0.00000E+00    0.15599E+02  0.28814E+02 -0.44414E+02  0.33280E+01  0.28407E+01 -0.62380E+01      982.00
  0.80311E+00  0.68930E+02    0.41250E+00  0.41250E+00 -0.82500E+00  0.00000E+00  0.00000E+00  0.00000E+00    0.15539E+02  0.28899E+02 -0.44437E+02  0.33270E+01  0.28394E+01 -0.62493E+01      982.00
  0.82728E+00  0.68983E+02    0.42500E+00  0.42500E+00 -0.85000E+00  0.00000E+00  0.00000E+00  0.00000E+00    0.15482E+02  0.28978E+02 -0.44460E+02  0.33286E+01  0.28285E+01 -0.62515E+01      982.00
  0.85145E+00  0.69031E+02    0.43750E+00  0.43750E+00 -0.87500E+00  0.00000E+00  0.00000E+00  0.00000E+00    0.15425E+02  0.29053E+02 -0.44478E+02  0.33293E+01  0.28285E+01 -0.62593E+01      982.00
  0.87561E+00  0.69073E+02    0.45000E+00  0.45000E+00 -0.90000E+00  0.00000E+00  0.00000E+00  0.00000E+00    0.15371E+02  0.29123E+02 -0.44493E+02  0.33309E+01  0.28296E+01 -0.62652E+01      982.00
  0.89977E+00  0.69059E+02    0.46250E+00  0.46250E+00 -0.92500E+00  0.00000E+00  0.00000E+00  0.00000E+00    0.15318E+02  0.29159E+02 -0.44477E+02  0.33201E+01  0.28234E+01 -0.62590E+01      982.00
  0.92392E+00  0.69040E+02    0.47500E+00  0.47500E+00 -0.95000E+00  0.00000E+00  0.00000E+00  0.00000E+00    0.15269E+02  0.29189E+02 -0.44458E+02  0.33142E+01  0.28159E+01 -0.62518E+01      982.00
  0.94807E+00  0.69019E+02    0.48750E+00  0.48750E+00 -0.97500E+00  0.00000E+00  0.00000E+00  0.00000E+00    0.15221E+02  0.29217E+02 -0.44438E+02  0.33095E+01  0.28090E+01 -0.62437E+01      982.00
  0.97221E+00  0.68998E+02    0.50000E+00  0.50000E+00 -0.10000E+01  0.00000E+00  0.00000E+00  0.00000E+00    0.15175E+02  0.29244E+02 -0.44418E+02  0.33056E+01  0.28025E+01 -0.62348E+01      982.00
