          Evm          Svm            E11          E22          E33          E23          E13          E12         SDEV11       SDEV22       SDEV33       SDEV23       SDEV13       SDEV12      TEMP
  0.00000E+00  0.53644E+02    0.00000E+00  0.00000E+00  0.00000E+00  0.00000E+00  0.00000E+00  0.00000E+00    0.13797E+02  0.18330E+02 -0.32127E+02  0.55658E+01 -0.27381E+01  0.11897E+02      982.00
  0.22458E-01  0.53455E+02    0.12500E-01  0.12500E-01 -0.25000E-01  0.00000E+00  0.00000E+00  0.00000E+00    0.14284E+02  0.17774E+02 -0.32058E+02  0.47635E+01 -0.23565E+01  0.12264E+02      982.00
  0.44948E-01  0.53471E+02    0.25000E-01  0.25000E-01 -0.50000E-01  0.00000E+00  0.00000E+00  0.00000E+00    0.14964E+02  0.17128E+02 -0.32091E+02  0.37735E+01 -0.19341E+01  0.12708E+02      982.00
  0.67454E-01  0.53652E+02    0.37500E-01  0.37500E-01 -0.75000E-01  0.00000E+00  0.00000E+00  0.00000E+00    0.15830E+02  0.16363E+02 -0.32193E+02  0.26234E+01 -0.14383E+01  0.13161E+02      982.00
  0.89955E-01  0.53897E+02    0.50000E-01  0.50000E-01 -0.10000E+00  0.00000E+00  0.00000E+00  0.00000E+00    0.16761E+02  0.15538E+02 -0.32299E+02  0.15030E+01 -0.90780E+00  0.13505E+02      982.00
  0.11243E+00  0.54142E+02    0.62500E-01  0.62500E-01 -0.12500E+00  0.00000E+00  0.00000E+00  0.00000E+00    0.17612E+02  0.14776E+02 -0.32387E+02  0.56855E+00 -0.41420E+00  0.13708E+02      982.00
  0.13486E+00  0.54402E+02    0.75000E-01  0.75000E-01 -0.15000E+00  0.00000E+00  0.00000E+00  0.00000E+00    0.18335E+02  0.14140E+02 -0.32475E+02 -0.17471E+00  0.69480E-02  0.13826E+02      982.00
  0.15725E+00  0.54699E+02    0.87500E-01  0.87500E-01 -0.17500E+00  0.00000E+00  0.00000E+00  0.00000E+00    0.18931E+02  0.13649E+02 -0.32580E+02 -0.75806E+00  0.33988E+00  0.13913E+02      982.00
  0.17958E+00  0.55039E+02    0.10000E+00  0.10000E+00 -0.20000E+00  0.00000E+00  0.00000E+00  0.00000E+00    0.19435E+02  0.13276E+02 -0.32711E+02 -0.12297E+01  0.60317E+00  0.13997E+02      982.00
  0.20187E+00  0.55416E+02    0.11250E+00  0.11250E+00 -0.22500E+00  0.00000E+00  0.00000E+00  0.00000E+00    0.19859E+02  0.13008E+02 -0.32866E+02 -0.16130E+01  0.80165E+00  0.14091E+02      982.00
  0.22411E+00  0.55823E+02    0.12500E+00  0.12500E+00 -0.25000E+00  0.00000E+00  0.00000E+00  0.00000E+00    0.20230E+02  0.12812E+02 -0.33042E+02 -0.19361E+01  0.96040E+00  0.14195E+02      982.00
  0.24630E+00  0.56253E+02    0.13750E+00  0.13750E+00 -0.27500E+00  0.00000E+00  0.00000E+00  0.00000E+00    0.20551E+02  0.12686E+02 -0.33237E+02 -0.22037E+01  0.10847E+01  0.14310E+02      982.00
  0.26846E+00  0.56700E+02    0.15000E+00  0.15000E+00 -0.30000E+00  0.00000E+00  0.00000E+00  0.00000E+00    0.20844E+02  0.12603E+02 -0.33447E+02 -0.24346E+01  0.11946E+01  0.14432E+02      982.00
  0.29058E+00  0.57147E+02    0.16250E+00  0.16250E+00 -0.32500E+00  0.00000E+00  0.00000E+00  0.00000E+00    0.21100E+02  0.12566E+02 -0.33666E+02 -0.26269E+01  0.12843E+01  0.14552E+02      982.00
  0.31267E+00  0.57571E+02    0.17500E+00  0.17500E+00 -0.35000E+00  0.00000E+00  0.00000E+00  0.00000E+00    0.21320E+02  0.12563E+02 -0.33883E+02 -0.27807E+01  0.13602E+01  0.14663E+02      982.00
  0.33474E+00  0.57987E+02    0.18750E+00  0.18750E+00 -0.37500E+00  0.00000E+00  0.00000E+00  0.00000E+00    0.21519E+02  0.12581E+02 -0.34099E+02 -0.29191E+01  0.14294E+01  0.14773E+02      982.00
  0.35680E+00  0.58396E+02    0.20000E+00  0.20000E+00 -0.40000E+00  0.00000E+00  0.00000E+00  0.00000E+00    0.21692E+02  0.12625E+02 -0.34317E+02 -0.30234E+01  0.14928E+01  0.14885E+02      982.00
  0.37883E+00  0.58786E+02    0.21250E+00  0.21250E+00 -0.42500E+00  0.00000E+00  0.00000E+00  0.00000E+00    0.21846E+02  0.12681E+02 -0.34527E+02 -0.31194E+01  0.15573E+01  0.14990E+02      982.00
  0.40086E+00  0.59162E+02    0.22500E+00  0.22500E+00 -0.45000E+00  0.00000E+00  0.00000E+00  0.00000E+00    0.21978E+02  0.12757E+02 -0.34735E+02 -0.31803E+01  0.16182E+01  0.15094E+02      982.00
  0.42288E+00  0.59519E+02    0.23750E+00  0.23750E+00 -0.47500E+00  0.00000E+00  0.00000E+00  0.00000E+00    0.22094E+02  0.12843E+02 -0.34937E+02 -0.32230E+01  0.16794E+01  0.15193E+02      982.00
  0.44489E+00  0.59860E+02    0.25000E+00  0.25000E+00 -0.50000E+00  0.00000E+00  0.00000E+00  0.00000E+00    0.22193E+02  0.12938E+02 -0.35131E+02 -0.32493E+01  0.17416E+01  0.15290E+02      982.00
  0.46690E+00  0.60185E+02    0.26250E+00  0.26250E+00 -0.52500E+00  0.00000E+00  0.00000E+00  0.00000E+00    0.22278E+02  0.13039E+02 -0.35318E+02 -0.32604E+01  0.18054E+01  0.15385E+02      982.00
  0.48890E+00  0.60492E+02    0.27500E+00  0.27500E+00 -0.55000E+00  0.00000E+00  0.00000E+00  0.00000E+00    0.22349E+02  0.13146E+02 -0.35495E+02 -0.32579E+01  0.18701E+01  0.15478E+02      982.00
  0.51090E+00  0.60788E+02    0.28750E+00  0.28750E+00 -0.57500E+00  0.00000E+00  0.00000E+00  0.00000E+00    0.22407E+02  0.13258E+02 -0.35665E+02 -0.32423E+01  0.19377E+01  0.15573E+02      982.00
  0.53291E+00  0.61082E+02    0.30000E+00  0.30000E+00 -0.60000E+00  0.00000E+00  0.00000E+00  0.00000E+00    0.22464E+02  0.13368E+02 -0.35833E+02 -0.32152E+01  0.20044E+01  0.15672E+02      982.00
  0.55491E+00  0.61353E+02    0.31250E+00  0.31250E+00 -0.62500E+00  0.00000E+00  0.00000E+00  0.00000E+00    0.22501E+02  0.13487E+02 -0.35987E+02 -0.31797E+01  0.20747E+01  0.15770E+02      982.00
  0.57690E+00  0.61614E+02    0.32500E+00  0.32500E+00 -0.65000E+00  0.00000E+00  0.00000E+00  0.00000E+00    0.22525E+02  0.13608E+02 -0.36133E+02 -0.31358E+01  0.21459E+01  0.15871E+02      982.00
  0.59889E+00  0.61864E+02    0.33750E+00  0.33750E+00 -0.67500E+00  0.00000E+00  0.00000E+00  0.00000E+00    0.22540E+02  0.13732E+02 -0.36272E+02 -0.30849E+01  0.22171E+01  0.15975E+02      982.00
  0.62088E+00  0.62106E+02    0.35000E+00  0.35000E+00 -0.70000E+00  0.00000E+00  0.00000E+00  0.00000E+00    0.22544E+02  0.13857E+02 -0.36402E+02 -0.30290E+01  0.22869E+01  0.16081E+02      982.00
  0.64286E+00  0.62338E+02    0.36250E+00  0.36250E+00 -0.72500E+00  0.00000E+00  0.00000E+00  0.00000E+00    0.22539E+02  0.13985E+02 -0.36524E+02 -0.29699E+01  0.23538E+01  0.16192E+02      982.00
  0.66483E+00  0.62562E+02    0.37500E+00  0.37500E+00 -0.75000E+00  0.00000E+00  0.00000E+00  0.00000E+00    0.22523E+02  0.14115E+02 -0.36638E+02 -0.29101E+01  0.24158E+01  0.16306E+02      982.00
  0.68679E+00  0.62777E+02    0.38750E+00  0.38750E+00 -0.77500E+00  0.00000E+00  0.00000E+00  0.00000E+00    0.22498E+02  0.14247E+02 -0.36745E+02 -0.28519E+01  0.24703E+01  0.16425E+02      982.00
  0.70874E+00  0.62974E+02    0.40000E+00  0.40000E+00 -0.80000E+00  0.00000E+00  0.00000E+00  0.00000E+00    0.22448E+02  0.14392E+02 -0.36840E+02 -0.27906E+01  0.25178E+01  0.16542E+02      982.00
  0.73068E+00  0.63190E+02    0.41250E+00  0.41250E+00 -0.82500E+00  0.00000E+00  0.00000E+00  0.00000E+00    0.22425E+02  0.14514E+02 -0.36939E+02 -0.27509E+01  0.25476E+01  0.16672E+02      982.00
  0.75260E+00  0.63340E+02    0.42500E+00  0.42500E+00 -0.85000E+00  0.00000E+00  0.00000E+00  0.00000E+00    0.22349E+02  0.14656E+02 -0.37006E+02 -0.27097E+01  0.25604E+01  0.16779E+02      982.00
  0.77451E+00  0.63529E+02    0.43750E+00  0.43750E+00 -0.87500E+00  0.00000E+00  0.00000E+00  0.00000E+00    0.22287E+02  0.14800E+02 -0.37087E+02 -0.26841E+01  0.25578E+01  0.16911E+02      982.00
  0.79640E+00  0.63765E+02    0.45000E+00  0.45000E+00 -0.90000E+00  0.00000E+00  0.00000E+00  0.00000E+00    0.22222E+02  0.14962E+02 -0.37184E+02 -0.26708E+01  0.25390E+01  0.17076E+02      982.00
  0.81827E+00  0.63926E+02    0.46250E+00  0.46250E+00 -0.92500E+00  0.00000E+00  0.00000E+00  0.00000E+00    0.22154E+02  0.15095E+02 -0.37249E+02 -0.26684E+01  0.25136E+01  0.17196E+02      982.00
  0.84012E+00  0.64074E+02    0.47500E+00  0.47500E+00 -0.95000E+00  0.00000E+00  0.00000E+00  0.00000E+00    0.22068E+02  0.15240E+02 -0.37308E+02 -0.26685E+01  0.24727E+01  0.17312E+02      982.00
  0.86195E+00  0.64225E+02    0.48750E+00  0.48750E+00 -0.97500E+00  0.00000E+00  0.00000E+00  0.00000E+00    0.21981E+02  0.15388E+02 -0.37369E+02 -0.26737E+01  0.24244E+01  0.17428E+02      982.00
  0.88377E+00  0.64367E+02    0.50000E+00  0.50000E+00 -0.10000E+01  0.00000E+00  0.00000E+00  0.00000E+00    0.21896E+02  0.15530E+02 -0.37426E+02 -0.26853E+01  0.23628E+01  0.17539E+02      982.00
