          Evm          Svm            E11          E22          E33          E23          E13          E12         SDEV11       SDEV22       SDEV33       SDEV23       SDEV13       SDEV12      TEMP
  0.00000E+00  0.62715E+02    0.00000E+00  0.00000E+00  0.00000E+00  0.00000E+00  0.00000E+00  0.00000E+00    0.19792E+02  0.19552E+02 -0.39344E+02  0.43571E+01 -0.44082E+01  0.10569E+02      982.00
  0.23525E-01  0.62690E+02    0.12500E-01  0.12500E-01 -0.25000E-01  0.00000E+00  0.00000E+00  0.00000E+00    0.19820E+02  0.19533E+02 -0.39353E+02  0.42660E+01 -0.43099E+01  0.10569E+02      982.00
  0.47065E-01  0.62703E+02    0.25000E-01  0.25000E-01 -0.50000E-01  0.00000E+00  0.00000E+00  0.00000E+00    0.19842E+02  0.19539E+02 -0.39381E+02  0.41770E+01 -0.42190E+01  0.10589E+02      982.00
  0.70618E-01  0.62756E+02    0.37500E-01  0.37500E-01 -0.75000E-01  0.00000E+00  0.00000E+00  0.00000E+00    0.19871E+02  0.19555E+02 -0.39426E+02  0.40943E+01 -0.41361E+01  0.10634E+02      982.00
  0.94177E-01  0.62846E+02    0.50000E-01  0.50000E-01 -0.10000E+00  0.00000E+00  0.00000E+00  0.00000E+00    0.19909E+02  0.19582E+02 -0.39491E+02  0.40257E+01 -0.40681E+01  0.10681E+02      982.00
  0.11774E+00  0.62972E+02    0.62500E-01  0.62500E-01 -0.12500E+00  0.00000E+00  0.00000E+00  0.00000E+00    0.19956E+02  0.19613E+02 -0.39569E+02  0.39585E+01 -0.40021E+01  0.10761E+02      982.00
  0.14130E+00  0.63135E+02    0.75000E-01  0.75000E-01 -0.15000E+00  0.00000E+00  0.00000E+00  0.00000E+00    0.20012E+02  0.19652E+02 -0.39665E+02  0.38994E+01 -0.39449E+01  0.10859E+02      982.00
  0.16486E+00  0.63328E+02    0.87500E-01  0.87500E-01 -0.17500E+00  0.00000E+00  0.00000E+00  0.00000E+00    0.20077E+02  0.19698E+02 -0.39775E+02  0.38488E+01 -0.38967E+01  0.10966E+02      982.00
  0.18842E+00  0.63551E+02    0.10000E+00  0.10000E+00 -0.20000E+00  0.00000E+00  0.00000E+00  0.00000E+00    0.20150E+02  0.19751E+02 -0.39901E+02  0.38064E+01 -0.38564E+01  0.11082E+02      982.00
  0.21196E+00  0.63790E+02    0.11250E+00  0.11250E+00 -0.22500E+00  0.00000E+00  0.00000E+00  0.00000E+00    0.20227E+02  0.19806E+02 -0.40034E+02  0.37717E+01 -0.38247E+01  0.11201E+02      982.00
  0.23550E+00  0.64055E+02    0.12500E+00  0.12500E+00 -0.25000E+00  0.00000E+00  0.00000E+00  0.00000E+00    0.20313E+02  0.19865E+02 -0.40178E+02  0.37400E+01 -0.37960E+01  0.11337E+02      982.00
  0.25902E+00  0.64314E+02    0.13750E+00  0.13750E+00 -0.27500E+00  0.00000E+00  0.00000E+00  0.00000E+00    0.20397E+02  0.19925E+02 -0.40322E+02  0.37205E+01 -0.37793E+01  0.11454E+02      982.00
  0.28253E+00  0.64588E+02    0.15000E+00  0.15000E+00 -0.30000E+00  0.00000E+00  0.00000E+00  0.00000E+00    0.20485E+02  0.19991E+02 -0.40477E+02  0.37076E+01 -0.37698E+01  0.11565E+02      982.00
  0.30603E+00  0.64855E+02    0.16250E+00  0.16250E+00 -0.32500E+00  0.00000E+00  0.00000E+00  0.00000E+00    0.20572E+02  0.20055E+02 -0.40627E+02  0.36985E+01 -0.37647E+01  0.11671E+02      982.00
  0.32952E+00  0.65113E+02    0.17500E+00  0.17500E+00 -0.35000E+00  0.00000E+00  0.00000E+00  0.00000E+00    0.20656E+02  0.20118E+02 -0.40774E+02  0.36933E+01 -0.37633E+01  0.11769E+02      982.00
  0.35300E+00  0.65387E+02    0.18750E+00  0.18750E+00 -0.37500E+00  0.00000E+00  0.00000E+00  0.00000E+00    0.20746E+02  0.20182E+02 -0.40928E+02  0.36895E+01 -0.37629E+01  0.11874E+02      982.00
  0.37647E+00  0.65592E+02    0.20000E+00  0.20000E+00 -0.40000E+00  0.00000E+00  0.00000E+00  0.00000E+00    0.20815E+02  0.20230E+02 -0.41045E+02  0.36905E+01 -0.37672E+01  0.11946E+02      982.00
  0.39994E+00  0.65860E+02    0.21250E+00  0.21250E+00 -0.42500E+00  0.00000E+00  0.00000E+00  0.00000E+00    0.20903E+02  0.20295E+02 -0.41198E+02  0.36941E+01 -0.37741E+01  0.12037E+02      982.00
  0.42340E+00  0.66071E+02    0.22500E+00  0.22500E+00 -0.45000E+00  0.00000E+00  0.00000E+00  0.00000E+00    0.20974E+02  0.20347E+02 -0.41321E+02  0.36972E+01 -0.37800E+01  0.12104E+02      982.00
  0.44685E+00  0.66278E+02    0.23750E+00  0.23750E+00 -0.47500E+00  0.00000E+00  0.00000E+00  0.00000E+00    0.21043E+02  0.20400E+02 -0.41443E+02  0.37004E+01 -0.37871E+01  0.12164E+02      982.00
  0.47030E+00  0.66509E+02    0.25000E+00  0.25000E+00 -0.50000E+00  0.00000E+00  0.00000E+00  0.00000E+00    0.21121E+02  0.20458E+02 -0.41579E+02  0.37046E+01 -0.37935E+01  0.12234E+02      982.00
  0.49374E+00  0.66680E+02    0.26250E+00  0.26250E+00 -0.52500E+00  0.00000E+00  0.00000E+00  0.00000E+00    0.21179E+02  0.20502E+02 -0.41681E+02  0.37081E+01 -0.37992E+01  0.12281E+02      982.00
  0.51718E+00  0.66844E+02    0.27500E+00  0.27500E+00 -0.55000E+00  0.00000E+00  0.00000E+00  0.00000E+00    0.21234E+02  0.20544E+02 -0.41779E+02  0.37140E+01 -0.38078E+01  0.12324E+02      982.00
  0.54062E+00  0.66987E+02    0.28750E+00  0.28750E+00 -0.57500E+00  0.00000E+00  0.00000E+00  0.00000E+00    0.21283E+02  0.20583E+02 -0.41866E+02  0.37174E+01 -0.38130E+01  0.12358E+02      982.00
  0.56406E+00  0.67119E+02    0.30000E+00  0.30000E+00 -0.60000E+00  0.00000E+00  0.00000E+00  0.00000E+00    0.21327E+02  0.20618E+02 -0.41945E+02  0.37216E+01 -0.38196E+01  0.12391E+02      982.00
  0.58749E+00  0.67238E+02    0.31250E+00  0.31250E+00 -0.62500E+00  0.00000E+00  0.00000E+00  0.00000E+00    0.21367E+02  0.20650E+02 -0.42017E+02  0.37249E+01 -0.38239E+01  0.12421E+02      982.00
  0.61093E+00  0.67385E+02    0.32500E+00  0.32500E+00 -0.65000E+00  0.00000E+00  0.00000E+00  0.00000E+00    0.21417E+02  0.20689E+02 -0.42106E+02  0.37270E+01 -0.38280E+01  0.12458E+02      982.00
  0.63436E+00  0.67483E+02    0.33750E+00  0.33750E+00 -0.67500E+00  0.00000E+00  0.00000E+00  0.00000E+00    0.21450E+02  0.20715E+02 -0.42166E+02  0.37295E+01 -0.38316E+01  0.12483E+02      982.00
  0.65779E+00  0.67576E+02    0.35000E+00  0.35000E+00 -0.70000E+00  0.00000E+00  0.00000E+00  0.00000E+00    0.21482E+02  0.20740E+02 -0.42222E+02  0.37324E+01 -0.38351E+01  0.12505E+02      982.00
  0.68122E+00  0.67662E+02    0.36250E+00  0.36250E+00 -0.72500E+00  0.00000E+00  0.00000E+00  0.00000E+00    0.21510E+02  0.20764E+02 -0.42274E+02  0.37366E+01 -0.38407E+01  0.12525E+02      982.00
  0.70465E+00  0.67736E+02    0.37500E+00  0.37500E+00 -0.75000E+00  0.00000E+00  0.00000E+00  0.00000E+00    0.21534E+02  0.20785E+02 -0.42319E+02  0.37395E+01 -0.38444E+01  0.12542E+02      982.00
  0.72808E+00  0.67839E+02    0.38750E+00  0.38750E+00 -0.77500E+00  0.00000E+00  0.00000E+00  0.00000E+00    0.21570E+02  0.20814E+02 -0.42383E+02  0.37374E+01 -0.38409E+01  0.12567E+02      982.00
  0.75151E+00  0.67910E+02    0.40000E+00  0.40000E+00 -0.80000E+00  0.00000E+00  0.00000E+00  0.00000E+00    0.21593E+02  0.20832E+02 -0.42426E+02  0.37405E+01 -0.38445E+01  0.12585E+02      982.00
  0.77494E+00  0.67961E+02    0.41250E+00  0.41250E+00 -0.82500E+00  0.00000E+00  0.00000E+00  0.00000E+00    0.21610E+02  0.20846E+02 -0.42456E+02  0.37442E+01 -0.38481E+01  0.12599E+02      982.00
  0.79836E+00  0.68011E+02    0.42500E+00  0.42500E+00 -0.85000E+00  0.00000E+00  0.00000E+00  0.00000E+00    0.21626E+02  0.20859E+02 -0.42485E+02  0.37482E+01 -0.38523E+01  0.12612E+02      982.00
  0.82179E+00  0.68060E+02    0.43750E+00  0.43750E+00 -0.87500E+00  0.00000E+00  0.00000E+00  0.00000E+00    0.21641E+02  0.20873E+02 -0.42514E+02  0.37527E+01 -0.38566E+01  0.12624E+02      982.00
  0.84521E+00  0.68104E+02    0.45000E+00  0.45000E+00 -0.90000E+00  0.00000E+00  0.00000E+00  0.00000E+00    0.21654E+02  0.20886E+02 -0.42540E+02  0.37581E+01 -0.38612E+01  0.12635E+02      982.00
  0.86864E+00  0.68147E+02    0.46250E+00  0.46250E+00 -0.92500E+00  0.00000E+00  0.00000E+00  0.00000E+00    0.21667E+02  0.20897E+02 -0.42565E+02  0.37635E+01 -0.38658E+01  0.12647E+02      982.00
  0.89206E+00  0.68185E+02    0.47500E+00  0.47500E+00 -0.95000E+00  0.00000E+00  0.00000E+00  0.00000E+00    0.21678E+02  0.20908E+02 -0.42587E+02  0.37685E+01 -0.38708E+01  0.12657E+02      982.00
  0.91548E+00  0.68222E+02    0.48750E+00  0.48750E+00 -0.97500E+00  0.00000E+00  0.00000E+00  0.00000E+00    0.21689E+02  0.20918E+02 -0.42607E+02  0.37745E+01 -0.38758E+01  0.12668E+02      982.00
  0.93890E+00  0.68205E+02    0.50000E+00  0.50000E+00 -0.10000E+01  0.00000E+00  0.00000E+00  0.00000E+00    0.21681E+02  0.20915E+02 -0.42595E+02  0.37674E+01 -0.38686E+01  0.12671E+02      982.00
