          Evm          Svm            E11          E22          E33          E23          E13          E12         SDEV11       SDEV22       SDEV33       SDEV23       SDEV13       SDEV12      TEMP
  0.00000E+00  0.62418E+02    0.00000E+00  0.00000E+00  0.00000E+00  0.00000E+00  0.00000E+00  0.00000E+00    0.22110E+02  0.17280E+02 -0.39390E+02 -0.39874E+01  0.54347E+01  0.91501E+01      982.00
  0.23665E-01  0.62516E+02    0.12500E-01  0.12500E-01 -0.25000E-01  0.00000E+00  0.00000E+00  0.00000E+00    0.21463E+02  0.17939E+02 -0.39402E+02 -0.43197E+01  0.53013E+01  0.94076E+01      982.00
  0.47300E-01  0.62581E+02    0.25000E-01  0.25000E-01 -0.50000E-01  0.00000E+00  0.00000E+00  0.00000E+00    0.20998E+02  0.18404E+02 -0.39402E+02 -0.44955E+01  0.51785E+01  0.96119E+01      982.00
  0.70910E-01  0.62646E+02    0.37500E-01  0.37500E-01 -0.75000E-01  0.00000E+00  0.00000E+00  0.00000E+00    0.20676E+02  0.18731E+02 -0.39407E+02 -0.45576E+01  0.50444E+01  0.98127E+01      982.00
  0.94500E-01  0.62722E+02    0.50000E-01  0.50000E-01 -0.10000E+00  0.00000E+00  0.00000E+00  0.00000E+00    0.20472E+02  0.18950E+02 -0.39421E+02 -0.45341E+01  0.49009E+01  0.10032E+02      982.00
  0.11807E+00  0.62816E+02    0.62500E-01  0.62500E-01 -0.12500E+00  0.00000E+00  0.00000E+00  0.00000E+00    0.20355E+02  0.19086E+02 -0.39441E+02 -0.44538E+01  0.47505E+01  0.10283E+02      982.00
  0.14162E+00  0.62938E+02    0.75000E-01  0.75000E-01 -0.15000E+00  0.00000E+00  0.00000E+00  0.00000E+00    0.20310E+02  0.19164E+02 -0.39474E+02 -0.43337E+01  0.45956E+01  0.10562E+02      982.00
  0.16513E+00  0.63081E+02    0.87500E-01  0.87500E-01 -0.17500E+00  0.00000E+00  0.00000E+00  0.00000E+00    0.20314E+02  0.19196E+02 -0.39510E+02 -0.41822E+01  0.44318E+01  0.10873E+02      982.00
  0.18862E+00  0.63234E+02    0.10000E+00  0.10000E+00 -0.20000E+00  0.00000E+00  0.00000E+00  0.00000E+00    0.20354E+02  0.19189E+02 -0.39543E+02 -0.40209E+01  0.42807E+01  0.11192E+02      982.00
  0.21207E+00  0.63395E+02    0.11250E+00  0.11250E+00 -0.22500E+00  0.00000E+00  0.00000E+00  0.00000E+00    0.20402E+02  0.19173E+02 -0.39576E+02 -0.38625E+01  0.41352E+01  0.11514E+02      982.00
  0.23548E+00  0.63568E+02    0.12500E+00  0.12500E+00 -0.25000E+00  0.00000E+00  0.00000E+00  0.00000E+00    0.20450E+02  0.19157E+02 -0.39607E+02 -0.37027E+01  0.39855E+01  0.11850E+02      982.00
  0.25885E+00  0.63751E+02    0.13750E+00  0.13750E+00 -0.27500E+00  0.00000E+00  0.00000E+00  0.00000E+00    0.20503E+02  0.19136E+02 -0.39639E+02 -0.35389E+01  0.38330E+01  0.12191E+02      982.00
  0.28216E+00  0.63935E+02    0.15000E+00  0.15000E+00 -0.30000E+00  0.00000E+00  0.00000E+00  0.00000E+00    0.20550E+02  0.19118E+02 -0.39668E+02 -0.33747E+01  0.36799E+01  0.12529E+02      982.00
  0.30543E+00  0.64117E+02    0.16250E+00  0.16250E+00 -0.32500E+00  0.00000E+00  0.00000E+00  0.00000E+00    0.20592E+02  0.19102E+02 -0.39694E+02 -0.32051E+01  0.35213E+01  0.12862E+02      982.00
  0.32865E+00  0.64296E+02    0.17500E+00  0.17500E+00 -0.35000E+00  0.00000E+00  0.00000E+00  0.00000E+00    0.20619E+02  0.19097E+02 -0.39716E+02 -0.30296E+01  0.33548E+01  0.13190E+02      982.00
  0.35181E+00  0.64463E+02    0.18750E+00  0.18750E+00 -0.37500E+00  0.00000E+00  0.00000E+00  0.00000E+00    0.20624E+02  0.19108E+02 -0.39732E+02 -0.28585E+01  0.31879E+01  0.13500E+02      982.00
  0.37492E+00  0.64621E+02    0.20000E+00  0.20000E+00 -0.40000E+00  0.00000E+00  0.00000E+00  0.00000E+00    0.20610E+02  0.19135E+02 -0.39745E+02 -0.26831E+01  0.30126E+01  0.13797E+02      982.00
  0.39799E+00  0.64769E+02    0.21250E+00  0.21250E+00 -0.42500E+00  0.00000E+00  0.00000E+00  0.00000E+00    0.20579E+02  0.19177E+02 -0.39755E+02 -0.25028E+01  0.28283E+01  0.14078E+02      982.00
  0.42101E+00  0.64911E+02    0.22500E+00  0.22500E+00 -0.45000E+00  0.00000E+00  0.00000E+00  0.00000E+00    0.20536E+02  0.19228E+02 -0.39764E+02 -0.23266E+01  0.26476E+01  0.14345E+02      982.00
  0.44398E+00  0.65049E+02    0.23750E+00  0.23750E+00 -0.47500E+00  0.00000E+00  0.00000E+00  0.00000E+00    0.20484E+02  0.19288E+02 -0.39773E+02 -0.21441E+01  0.24588E+01  0.14597E+02      982.00
  0.46691E+00  0.65175E+02    0.25000E+00  0.25000E+00 -0.50000E+00  0.00000E+00  0.00000E+00  0.00000E+00    0.20417E+02  0.19365E+02 -0.39781E+02 -0.19608E+01  0.22624E+01  0.14824E+02      982.00
  0.48979E+00  0.65295E+02    0.26250E+00  0.26250E+00 -0.52500E+00  0.00000E+00  0.00000E+00  0.00000E+00    0.20342E+02  0.19449E+02 -0.39791E+02 -0.17864E+01  0.20716E+01  0.15033E+02      982.00
  0.51265E+00  0.65413E+02    0.27500E+00  0.27500E+00 -0.55000E+00  0.00000E+00  0.00000E+00  0.00000E+00    0.20263E+02  0.19539E+02 -0.39802E+02 -0.16265E+01  0.18933E+01  0.15223E+02      982.00
  0.53547E+00  0.65528E+02    0.28750E+00  0.28750E+00 -0.57500E+00  0.00000E+00  0.00000E+00  0.00000E+00    0.20184E+02  0.19631E+02 -0.39815E+02 -0.14862E+01  0.17332E+01  0.15398E+02      982.00
  0.55825E+00  0.65642E+02    0.30000E+00  0.30000E+00 -0.60000E+00  0.00000E+00  0.00000E+00  0.00000E+00    0.20108E+02  0.19720E+02 -0.39828E+02 -0.13682E+01  0.15953E+01  0.15560E+02      982.00
  0.58100E+00  0.65751E+02    0.31250E+00  0.31250E+00 -0.62500E+00  0.00000E+00  0.00000E+00  0.00000E+00    0.20028E+02  0.19814E+02 -0.39841E+02 -0.12758E+01  0.14784E+01  0.15708E+02      982.00
  0.60373E+00  0.65861E+02    0.32500E+00  0.32500E+00 -0.65000E+00  0.00000E+00  0.00000E+00  0.00000E+00    0.19959E+02  0.19896E+02 -0.39855E+02 -0.12038E+01  0.13866E+01  0.15850E+02      982.00
  0.62642E+00  0.65970E+02    0.33750E+00  0.33750E+00 -0.67500E+00  0.00000E+00  0.00000E+00  0.00000E+00    0.19894E+02  0.19974E+02 -0.39868E+02 -0.11519E+01  0.13157E+01  0.15985E+02      982.00
  0.64908E+00  0.66072E+02    0.35000E+00  0.35000E+00 -0.70000E+00  0.00000E+00  0.00000E+00  0.00000E+00    0.19825E+02  0.20055E+02 -0.39880E+02 -0.11186E+01  0.12582E+01  0.16109E+02      982.00
  0.67172E+00  0.66173E+02    0.36250E+00  0.36250E+00 -0.72500E+00  0.00000E+00  0.00000E+00  0.00000E+00    0.19771E+02  0.20117E+02 -0.39888E+02 -0.11019E+01  0.12253E+01  0.16235E+02      982.00
  0.69432E+00  0.66272E+02    0.37500E+00  0.37500E+00 -0.75000E+00  0.00000E+00  0.00000E+00  0.00000E+00    0.19719E+02  0.20178E+02 -0.39897E+02 -0.10950E+01  0.12018E+01  0.16356E+02      982.00
  0.71690E+00  0.66361E+02    0.38750E+00  0.38750E+00 -0.77500E+00  0.00000E+00  0.00000E+00  0.00000E+00    0.19661E+02  0.20243E+02 -0.39904E+02 -0.11002E+01  0.11843E+01  0.16461E+02      982.00
  0.73945E+00  0.66454E+02    0.40000E+00  0.40000E+00 -0.80000E+00  0.00000E+00  0.00000E+00  0.00000E+00    0.19616E+02  0.20294E+02 -0.39910E+02 -0.11120E+01  0.11803E+01  0.16574E+02      982.00
  0.76197E+00  0.66543E+02    0.41250E+00  0.41250E+00 -0.82500E+00  0.00000E+00  0.00000E+00  0.00000E+00    0.19574E+02  0.20341E+02 -0.39915E+02 -0.11298E+01  0.11830E+01  0.16681E+02      982.00
  0.78446E+00  0.66626E+02    0.42500E+00  0.42500E+00 -0.85000E+00  0.00000E+00  0.00000E+00  0.00000E+00    0.19534E+02  0.20382E+02 -0.39917E+02 -0.11523E+01  0.11910E+01  0.16786E+02      982.00
  0.80693E+00  0.66707E+02    0.43750E+00  0.43750E+00 -0.87500E+00  0.00000E+00  0.00000E+00  0.00000E+00    0.19489E+02  0.20432E+02 -0.39921E+02 -0.11819E+01  0.11998E+01  0.16881E+02      982.00
  0.82937E+00  0.66783E+02    0.45000E+00  0.45000E+00 -0.90000E+00  0.00000E+00  0.00000E+00  0.00000E+00    0.19455E+02  0.20465E+02 -0.39920E+02 -0.12112E+01  0.12148E+01  0.16977E+02      982.00
  0.85179E+00  0.66853E+02    0.46250E+00  0.46250E+00 -0.92500E+00  0.00000E+00  0.00000E+00  0.00000E+00    0.19424E+02  0.20494E+02 -0.39918E+02 -0.12415E+01  0.12321E+01  0.17069E+02      982.00
  0.87418E+00  0.66920E+02    0.47500E+00  0.47500E+00 -0.95000E+00  0.00000E+00  0.00000E+00  0.00000E+00    0.19396E+02  0.20520E+02 -0.39915E+02 -0.12726E+01  0.12507E+01  0.17156E+02      982.00
  0.89654E+00  0.66983E+02    0.48750E+00  0.48750E+00 -0.97500E+00  0.00000E+00  0.00000E+00  0.00000E+00    0.19369E+02  0.20542E+02 -0.39912E+02 -0.13041E+01  0.12698E+01  0.17240E+02      982.00
  0.91889E+00  0.67042E+02    0.50000E+00  0.50000E+00 -0.10000E+01  0.00000E+00  0.00000E+00  0.00000E+00    0.19345E+02  0.20562E+02 -0.39908E+02 -0.13355E+01  0.12892E+01  0.17319E+02      982.00
