          Evm          Svm            E11          E22          E33          E23          E13          E12         SDEV11       SDEV22       SDEV33       SDEV23       SDEV13       SDEV12      TEMP
  0.00000E+00  0.55636E+02    0.00000E+00  0.00000E+00  0.00000E+00  0.00000E+00  0.00000E+00  0.00000E+00    0.15245E+02  0.17848E+02 -0.33093E+02 -0.33255E+01  0.83690E+00  0.14034E+02      982.00
  0.22306E-01  0.55438E+02    0.12500E-01  0.12500E-01 -0.25000E-01  0.00000E+00  0.00000E+00  0.00000E+00    0.15124E+02  0.17915E+02 -0.33038E+02 -0.32270E+01  0.12018E+01  0.13856E+02      982.00
  0.44654E-01  0.55338E+02    0.25000E-01  0.25000E-01 -0.50000E-01  0.00000E+00  0.00000E+00  0.00000E+00    0.15072E+02  0.17947E+02 -0.33019E+02 -0.30923E+01  0.14598E+01  0.13760E+02      982.00
  0.67029E-01  0.55368E+02    0.37500E-01  0.37500E-01 -0.75000E-01  0.00000E+00  0.00000E+00  0.00000E+00    0.15068E+02  0.17985E+02 -0.33053E+02 -0.29409E+01  0.16477E+01  0.13748E+02      982.00
  0.89416E-01  0.55551E+02    0.50000E-01  0.50000E-01 -0.10000E+00  0.00000E+00  0.00000E+00  0.00000E+00    0.15096E+02  0.18055E+02 -0.33152E+02 -0.27912E+01  0.17951E+01  0.13827E+02      982.00
  0.11179E+00  0.55863E+02    0.62500E-01  0.62500E-01 -0.12500E+00  0.00000E+00  0.00000E+00  0.00000E+00    0.15153E+02  0.18154E+02 -0.33307E+02 -0.26495E+01  0.19130E+01  0.13973E+02      982.00
  0.13415E+00  0.56273E+02    0.75000E-01  0.75000E-01 -0.15000E+00  0.00000E+00  0.00000E+00  0.00000E+00    0.15232E+02  0.18274E+02 -0.33507E+02 -0.25110E+01  0.20098E+01  0.14173E+02      982.00
  0.15648E+00  0.56746E+02    0.87500E-01  0.87500E-01 -0.17500E+00  0.00000E+00  0.00000E+00  0.00000E+00    0.15327E+02  0.18406E+02 -0.33733E+02 -0.23941E+01  0.20889E+01  0.14403E+02      982.00
  0.17877E+00  0.57253E+02    0.10000E+00  0.10000E+00 -0.20000E+00  0.00000E+00  0.00000E+00  0.00000E+00    0.15434E+02  0.18542E+02 -0.33977E+02 -0.22941E+01  0.21510E+01  0.14646E+02      982.00
  0.20103E+00  0.57780E+02    0.11250E+00  0.11250E+00 -0.22500E+00  0.00000E+00  0.00000E+00  0.00000E+00    0.15551E+02  0.18679E+02 -0.34230E+02 -0.22128E+01  0.21979E+01  0.14895E+02      982.00
  0.22325E+00  0.58308E+02    0.12500E+00  0.12500E+00 -0.25000E+00  0.00000E+00  0.00000E+00  0.00000E+00    0.15675E+02  0.18812E+02 -0.34487E+02 -0.21494E+01  0.22304E+01  0.15140E+02      982.00
  0.24542E+00  0.58828E+02    0.13750E+00  0.13750E+00 -0.27500E+00  0.00000E+00  0.00000E+00  0.00000E+00    0.15803E+02  0.18938E+02 -0.34741E+02 -0.21026E+01  0.22496E+01  0.15376E+02      982.00
  0.26757E+00  0.59315E+02    0.15000E+00  0.15000E+00 -0.30000E+00  0.00000E+00  0.00000E+00  0.00000E+00    0.15931E+02  0.19050E+02 -0.34980E+02 -0.20568E+01  0.22569E+01  0.15597E+02      982.00
  0.28969E+00  0.59794E+02    0.16250E+00  0.16250E+00 -0.32500E+00  0.00000E+00  0.00000E+00  0.00000E+00    0.16061E+02  0.19158E+02 -0.35219E+02 -0.20392E+01  0.22521E+01  0.15807E+02      982.00
  0.31177E+00  0.60249E+02    0.17500E+00  0.17500E+00 -0.35000E+00  0.00000E+00  0.00000E+00  0.00000E+00    0.16191E+02  0.19257E+02 -0.35448E+02 -0.20327E+01  0.22373E+01  0.16003E+02      982.00
  0.33384E+00  0.60678E+02    0.18750E+00  0.18750E+00 -0.37500E+00  0.00000E+00  0.00000E+00  0.00000E+00    0.16318E+02  0.19346E+02 -0.35665E+02 -0.20352E+01  0.22139E+01  0.16186E+02      982.00
  0.35588E+00  0.61081E+02    0.20000E+00  0.20000E+00 -0.40000E+00  0.00000E+00  0.00000E+00  0.00000E+00    0.16443E+02  0.19426E+02 -0.35869E+02 -0.20446E+01  0.21836E+01  0.16356E+02      982.00
  0.37790E+00  0.61455E+02    0.21250E+00  0.21250E+00 -0.42500E+00  0.00000E+00  0.00000E+00  0.00000E+00    0.16566E+02  0.19491E+02 -0.36057E+02 -0.20516E+01  0.21444E+01  0.16518E+02      982.00
  0.39990E+00  0.61807E+02    0.22500E+00  0.22500E+00 -0.45000E+00  0.00000E+00  0.00000E+00  0.00000E+00    0.16684E+02  0.19553E+02 -0.36237E+02 -0.20711E+01  0.21038E+01  0.16666E+02      982.00
  0.42189E+00  0.62155E+02    0.23750E+00  0.23750E+00 -0.47500E+00  0.00000E+00  0.00000E+00  0.00000E+00    0.16808E+02  0.19602E+02 -0.36410E+02 -0.20895E+01  0.20520E+01  0.16821E+02      982.00
  0.44385E+00  0.62458E+02    0.25000E+00  0.25000E+00 -0.50000E+00  0.00000E+00  0.00000E+00  0.00000E+00    0.16916E+02  0.19647E+02 -0.36564E+02 -0.21103E+01  0.20081E+01  0.16950E+02      982.00
  0.46581E+00  0.62741E+02    0.26250E+00  0.26250E+00 -0.52500E+00  0.00000E+00  0.00000E+00  0.00000E+00    0.17021E+02  0.19685E+02 -0.36707E+02 -0.21318E+01  0.19652E+01  0.17071E+02      982.00
  0.48775E+00  0.63004E+02    0.27500E+00  0.27500E+00 -0.55000E+00  0.00000E+00  0.00000E+00  0.00000E+00    0.17122E+02  0.19716E+02 -0.36839E+02 -0.21509E+01  0.19251E+01  0.17185E+02      982.00
  0.50967E+00  0.63247E+02    0.28750E+00  0.28750E+00 -0.57500E+00  0.00000E+00  0.00000E+00  0.00000E+00    0.17220E+02  0.19740E+02 -0.36960E+02 -0.21669E+01  0.18887E+01  0.17292E+02      982.00
  0.53159E+00  0.63462E+02    0.30000E+00  0.30000E+00 -0.60000E+00  0.00000E+00  0.00000E+00  0.00000E+00    0.17299E+02  0.19772E+02 -0.37071E+02 -0.21834E+01  0.18711E+01  0.17378E+02      982.00
  0.55349E+00  0.63674E+02    0.31250E+00  0.31250E+00 -0.62500E+00  0.00000E+00  0.00000E+00  0.00000E+00    0.17392E+02  0.19783E+02 -0.37175E+02 -0.21918E+01  0.18431E+01  0.17474E+02      982.00
  0.57539E+00  0.63839E+02    0.32500E+00  0.32500E+00 -0.65000E+00  0.00000E+00  0.00000E+00  0.00000E+00    0.17478E+02  0.19777E+02 -0.37255E+02 -0.21932E+01  0.18166E+01  0.17552E+02      982.00
  0.59727E+00  0.64021E+02    0.33750E+00  0.33750E+00 -0.67500E+00  0.00000E+00  0.00000E+00  0.00000E+00    0.17568E+02  0.19776E+02 -0.37344E+02 -0.21954E+01  0.17981E+01  0.17636E+02      982.00
  0.61915E+00  0.64203E+02    0.35000E+00  0.35000E+00 -0.70000E+00  0.00000E+00  0.00000E+00  0.00000E+00    0.17682E+02  0.19748E+02 -0.37429E+02 -0.21881E+01  0.17740E+01  0.17728E+02      982.00
  0.64101E+00  0.64354E+02    0.36250E+00  0.36250E+00 -0.72500E+00  0.00000E+00  0.00000E+00  0.00000E+00    0.17770E+02  0.19734E+02 -0.37504E+02 -0.21842E+01  0.17640E+01  0.17797E+02      982.00
  0.66286E+00  0.64485E+02    0.37500E+00  0.37500E+00 -0.75000E+00  0.00000E+00  0.00000E+00  0.00000E+00    0.17828E+02  0.19746E+02 -0.37574E+02 -0.21875E+01  0.17651E+01  0.17844E+02      982.00
  0.68471E+00  0.64615E+02    0.38750E+00  0.38750E+00 -0.77500E+00  0.00000E+00  0.00000E+00  0.00000E+00    0.17940E+02  0.19695E+02 -0.37635E+02 -0.21732E+01  0.17538E+01  0.17912E+02      982.00
  0.70655E+00  0.64700E+02    0.40000E+00  0.40000E+00 -0.80000E+00  0.00000E+00  0.00000E+00  0.00000E+00    0.17993E+02  0.19688E+02 -0.37681E+02 -0.21714E+01  0.17537E+01  0.17943E+02      982.00
  0.72839E+00  0.64806E+02    0.41250E+00  0.41250E+00 -0.82500E+00  0.00000E+00  0.00000E+00  0.00000E+00    0.18075E+02  0.19661E+02 -0.37736E+02 -0.21654E+01  0.17499E+01  0.17988E+02      982.00
  0.75023E+00  0.64906E+02    0.42500E+00  0.42500E+00 -0.85000E+00  0.00000E+00  0.00000E+00  0.00000E+00    0.18156E+02  0.19632E+02 -0.37788E+02 -0.21595E+01  0.17468E+01  0.18030E+02      982.00
  0.77206E+00  0.64986E+02    0.43750E+00  0.43750E+00 -0.87500E+00  0.00000E+00  0.00000E+00  0.00000E+00    0.18246E+02  0.19582E+02 -0.37828E+02 -0.21509E+01  0.17435E+01  0.18066E+02      982.00
  0.79389E+00  0.65075E+02    0.45000E+00  0.45000E+00 -0.90000E+00  0.00000E+00  0.00000E+00  0.00000E+00    0.18325E+02  0.19551E+02 -0.37877E+02 -0.21461E+01  0.17411E+01  0.18100E+02      982.00
  0.81572E+00  0.65151E+02    0.46250E+00  0.46250E+00 -0.92500E+00  0.00000E+00  0.00000E+00  0.00000E+00    0.18401E+02  0.19518E+02 -0.37919E+02 -0.21420E+01  0.17381E+01  0.18127E+02      982.00
  0.83754E+00  0.65221E+02    0.47500E+00  0.47500E+00 -0.95000E+00  0.00000E+00  0.00000E+00  0.00000E+00    0.18475E+02  0.19483E+02 -0.37959E+02 -0.21388E+01  0.17347E+01  0.18151E+02      982.00
  0.85937E+00  0.65269E+02    0.48750E+00  0.48750E+00 -0.97500E+00  0.00000E+00  0.00000E+00  0.00000E+00    0.18570E+02  0.19414E+02 -0.37985E+02 -0.21218E+01  0.17222E+01  0.18173E+02      982.00
  0.88119E+00  0.65273E+02    0.50000E+00  0.50000E+00 -0.10000E+01  0.00000E+00  0.00000E+00  0.00000E+00    0.18542E+02  0.19443E+02 -0.37985E+02 -0.21235E+01  0.17266E+01  0.18176E+02      982.00
