          Evm          Svm            E11          E22          E33          E23          E13          E12         SDEV11       SDEV22       SDEV33       SDEV23       SDEV13       SDEV12      TEMP
  0.00000E+00  0.57391E+02    0.00000E+00  0.00000E+00  0.00000E+00  0.00000E+00  0.00000E+00  0.00000E+00    0.15805E+02  0.19496E+02 -0.35300E+02 -0.39653E+01  0.69100E+00  0.11989E+02      982.00
  0.23066E-01  0.57444E+02    0.12500E-01  0.12500E-01 -0.25000E-01  0.00000E+00  0.00000E+00  0.00000E+00    0.16286E+02  0.18990E+02 -0.35276E+02 -0.36608E+01  0.99073E+00  0.12264E+02      982.00
  0.46094E-01  0.57568E+02    0.25000E-01  0.25000E-01 -0.50000E-01  0.00000E+00  0.00000E+00  0.00000E+00    0.16676E+02  0.18599E+02 -0.35275E+02 -0.34315E+01  0.12215E+01  0.12539E+02      982.00
  0.69073E-01  0.57773E+02    0.37500E-01  0.37500E-01 -0.75000E-01  0.00000E+00  0.00000E+00  0.00000E+00    0.17001E+02  0.18307E+02 -0.35307E+02 -0.32402E+01  0.14063E+01  0.12834E+02      982.00
  0.91991E-01  0.58051E+02    0.50000E-01  0.50000E-01 -0.10000E+00  0.00000E+00  0.00000E+00  0.00000E+00    0.17268E+02  0.18103E+02 -0.35371E+02 -0.30760E+01  0.15501E+01  0.13149E+02      982.00
  0.11484E+00  0.58383E+02    0.62500E-01  0.62500E-01 -0.12500E+00  0.00000E+00  0.00000E+00  0.00000E+00    0.17486E+02  0.17975E+02 -0.35460E+02 -0.29321E+01  0.16575E+01  0.13480E+02      982.00
  0.13762E+00  0.58753E+02    0.75000E-01  0.75000E-01 -0.15000E+00  0.00000E+00  0.00000E+00  0.00000E+00    0.17663E+02  0.17906E+02 -0.35569E+02 -0.28042E+01  0.17327E+01  0.13816E+02      982.00
  0.16032E+00  0.59146E+02    0.87500E-01  0.87500E-01 -0.17500E+00  0.00000E+00  0.00000E+00  0.00000E+00    0.17809E+02  0.17883E+02 -0.35692E+02 -0.26896E+01  0.17807E+01  0.14151E+02      982.00
  0.18295E+00  0.59551E+02    0.10000E+00  0.10000E+00 -0.20000E+00  0.00000E+00  0.00000E+00  0.00000E+00    0.17929E+02  0.17895E+02 -0.35825E+02 -0.25861E+01  0.18062E+01  0.14478E+02      982.00
  0.20551E+00  0.59959E+02    0.11250E+00  0.11250E+00 -0.22500E+00  0.00000E+00  0.00000E+00  0.00000E+00    0.18032E+02  0.17932E+02 -0.35965E+02 -0.24921E+01  0.18140E+01  0.14790E+02      982.00
  0.22800E+00  0.60344E+02    0.12500E+00  0.12500E+00 -0.25000E+00  0.00000E+00  0.00000E+00  0.00000E+00    0.18117E+02  0.17983E+02 -0.36100E+02 -0.24103E+01  0.18080E+01  0.15077E+02      982.00
  0.25043E+00  0.60737E+02    0.13750E+00  0.13750E+00 -0.27500E+00  0.00000E+00  0.00000E+00  0.00000E+00    0.18195E+02  0.18046E+02 -0.36241E+02 -0.23405E+01  0.17898E+01  0.15359E+02      982.00
  0.27281E+00  0.61108E+02    0.15000E+00  0.15000E+00 -0.30000E+00  0.00000E+00  0.00000E+00  0.00000E+00    0.18268E+02  0.18110E+02 -0.36379E+02 -0.22714E+01  0.17680E+01  0.15616E+02      982.00
  0.29514E+00  0.61469E+02    0.16250E+00  0.16250E+00 -0.32500E+00  0.00000E+00  0.00000E+00  0.00000E+00    0.18339E+02  0.18175E+02 -0.36514E+02 -0.22072E+01  0.17401E+01  0.15863E+02      982.00
  0.31741E+00  0.61807E+02    0.17500E+00  0.17500E+00 -0.35000E+00  0.00000E+00  0.00000E+00  0.00000E+00    0.18408E+02  0.18236E+02 -0.36644E+02 -0.21647E+01  0.17149E+01  0.16082E+02      982.00
  0.33964E+00  0.62138E+02    0.18750E+00  0.18750E+00 -0.37500E+00  0.00000E+00  0.00000E+00  0.00000E+00    0.18478E+02  0.18293E+02 -0.36770E+02 -0.21143E+01  0.16826E+01  0.16300E+02      982.00
  0.36183E+00  0.62402E+02    0.20000E+00  0.20000E+00 -0.40000E+00  0.00000E+00  0.00000E+00  0.00000E+00    0.18541E+02  0.18341E+02 -0.36882E+02 -0.21116E+01  0.16740E+01  0.16448E+02      982.00
  0.38400E+00  0.62678E+02    0.21250E+00  0.21250E+00 -0.42500E+00  0.00000E+00  0.00000E+00  0.00000E+00    0.18608E+02  0.18386E+02 -0.36994E+02 -0.20866E+01  0.16537E+01  0.16613E+02      982.00
  0.40613E+00  0.62913E+02    0.22500E+00  0.22500E+00 -0.45000E+00  0.00000E+00  0.00000E+00  0.00000E+00    0.18670E+02  0.18420E+02 -0.37090E+02 -0.20610E+01  0.16332E+01  0.16753E+02      982.00
  0.42824E+00  0.63179E+02    0.23750E+00  0.23750E+00 -0.47500E+00  0.00000E+00  0.00000E+00  0.00000E+00    0.18746E+02  0.18450E+02 -0.37196E+02 -0.20271E+01  0.16033E+01  0.16917E+02      982.00
  0.45032E+00  0.63390E+02    0.25000E+00  0.25000E+00 -0.50000E+00  0.00000E+00  0.00000E+00  0.00000E+00    0.18812E+02  0.18474E+02 -0.37286E+02 -0.20167E+01  0.15906E+01  0.17034E+02      982.00
  0.47237E+00  0.63585E+02    0.26250E+00  0.26250E+00 -0.52500E+00  0.00000E+00  0.00000E+00  0.00000E+00    0.18877E+02  0.18494E+02 -0.37371E+02 -0.20111E+01  0.15806E+01  0.17137E+02      982.00
  0.49441E+00  0.63764E+02    0.27500E+00  0.27500E+00 -0.55000E+00  0.00000E+00  0.00000E+00  0.00000E+00    0.18941E+02  0.18509E+02 -0.37449E+02 -0.20078E+01  0.15724E+01  0.17230E+02      982.00
  0.51644E+00  0.63928E+02    0.28750E+00  0.28750E+00 -0.57500E+00  0.00000E+00  0.00000E+00  0.00000E+00    0.19003E+02  0.18519E+02 -0.37523E+02 -0.20063E+01  0.15656E+01  0.17314E+02      982.00
  0.53845E+00  0.64063E+02    0.30000E+00  0.30000E+00 -0.60000E+00  0.00000E+00  0.00000E+00  0.00000E+00    0.19050E+02  0.18538E+02 -0.37589E+02 -0.20161E+01  0.15698E+01  0.17371E+02      982.00
  0.56045E+00  0.64217E+02    0.31250E+00  0.31250E+00 -0.62500E+00  0.00000E+00  0.00000E+00  0.00000E+00    0.19122E+02  0.18531E+02 -0.37653E+02 -0.20077E+01  0.15561E+01  0.17457E+02      982.00
  0.58244E+00  0.64345E+02    0.32500E+00  0.32500E+00 -0.65000E+00  0.00000E+00  0.00000E+00  0.00000E+00    0.19187E+02  0.18520E+02 -0.37707E+02 -0.20058E+01  0.15480E+01  0.17526E+02      982.00
  0.60442E+00  0.64464E+02    0.33750E+00  0.33750E+00 -0.67500E+00  0.00000E+00  0.00000E+00  0.00000E+00    0.19245E+02  0.18518E+02 -0.37763E+02 -0.20091E+01  0.15457E+01  0.17581E+02      982.00
  0.62638E+00  0.64571E+02    0.35000E+00  0.35000E+00 -0.70000E+00  0.00000E+00  0.00000E+00  0.00000E+00    0.19299E+02  0.18514E+02 -0.37813E+02 -0.20130E+01  0.15444E+01  0.17630E+02      982.00
  0.64834E+00  0.64670E+02    0.36250E+00  0.36250E+00 -0.72500E+00  0.00000E+00  0.00000E+00  0.00000E+00    0.19351E+02  0.18508E+02 -0.37860E+02 -0.20174E+01  0.15437E+01  0.17676E+02      982.00
  0.67030E+00  0.64762E+02    0.37500E+00  0.37500E+00 -0.75000E+00  0.00000E+00  0.00000E+00  0.00000E+00    0.19402E+02  0.18501E+02 -0.37903E+02 -0.20220E+01  0.15436E+01  0.17717E+02      982.00
  0.69224E+00  0.64847E+02    0.38750E+00  0.38750E+00 -0.77500E+00  0.00000E+00  0.00000E+00  0.00000E+00    0.19451E+02  0.18492E+02 -0.37943E+02 -0.20269E+01  0.15439E+01  0.17755E+02      982.00
  0.71419E+00  0.64926E+02    0.40000E+00  0.40000E+00 -0.80000E+00  0.00000E+00  0.00000E+00  0.00000E+00    0.19499E+02  0.18482E+02 -0.37981E+02 -0.20320E+01  0.15445E+01  0.17789E+02      982.00
  0.73612E+00  0.65000E+02    0.41250E+00  0.41250E+00 -0.82500E+00  0.00000E+00  0.00000E+00  0.00000E+00    0.19545E+02  0.18471E+02 -0.38016E+02 -0.20371E+01  0.15455E+01  0.17821E+02      982.00
  0.75806E+00  0.65068E+02    0.42500E+00  0.42500E+00 -0.85000E+00  0.00000E+00  0.00000E+00  0.00000E+00    0.19590E+02  0.18459E+02 -0.38049E+02 -0.20423E+01  0.15467E+01  0.17850E+02      982.00
  0.77998E+00  0.65132E+02    0.43750E+00  0.43750E+00 -0.87500E+00  0.00000E+00  0.00000E+00  0.00000E+00    0.19633E+02  0.18446E+02 -0.38079E+02 -0.20475E+01  0.15481E+01  0.17877E+02      982.00
  0.80191E+00  0.65191E+02    0.45000E+00  0.45000E+00 -0.90000E+00  0.00000E+00  0.00000E+00  0.00000E+00    0.19675E+02  0.18432E+02 -0.38108E+02 -0.20527E+01  0.15498E+01  0.17902E+02      982.00
  0.82383E+00  0.65247E+02    0.46250E+00  0.46250E+00 -0.92500E+00  0.00000E+00  0.00000E+00  0.00000E+00    0.19716E+02  0.18418E+02 -0.38135E+02 -0.20579E+01  0.15516E+01  0.17925E+02      982.00
  0.84575E+00  0.65299E+02    0.47500E+00  0.47500E+00 -0.95000E+00  0.00000E+00  0.00000E+00  0.00000E+00    0.19756E+02  0.18403E+02 -0.38160E+02 -0.20631E+01  0.15534E+01  0.17946E+02      982.00
  0.86766E+00  0.65348E+02    0.48750E+00  0.48750E+00 -0.97500E+00  0.00000E+00  0.00000E+00  0.00000E+00    0.19795E+02  0.18388E+02 -0.38183E+02 -0.20682E+01  0.15554E+01  0.17966E+02      982.00
  0.88957E+00  0.65355E+02    0.50000E+00  0.50000E+00 -0.10000E+01  0.00000E+00  0.00000E+00  0.00000E+00    0.19784E+02  0.18404E+02 -0.38188E+02 -0.20656E+01  0.15591E+01  0.17968E+02      982.00
