          Evm          Svm            E11          E22          E33          E23          E13          E12         SDEV11       SDEV22       SDEV33       SDEV23       SDEV13       SDEV12      TEMP
  0.00000E+00  0.68238E+02    0.00000E+00  0.00000E+00  0.00000E+00  0.00000E+00  0.00000E+00  0.00000E+00    0.21164E+02  0.23897E+02 -0.45061E+02 -0.32675E+01  0.19639E+01 -0.35881E+01      982.00
  0.24763E-01  0.68000E+02    0.12500E-01  0.12500E-01 -0.25000E-01  0.00000E+00  0.00000E+00  0.00000E+00    0.21127E+02  0.23784E+02 -0.44911E+02 -0.33303E+01  0.20024E+01 -0.34157E+01      982.00
  0.49531E-01  0.67794E+02    0.25000E-01  0.25000E-01 -0.50000E-01  0.00000E+00  0.00000E+00  0.00000E+00    0.21117E+02  0.23668E+02 -0.44785E+02 -0.33889E+01  0.20480E+01 -0.32237E+01      982.00
  0.74304E-01  0.67654E+02    0.37500E-01  0.37500E-01 -0.75000E-01  0.00000E+00  0.00000E+00  0.00000E+00    0.21142E+02  0.23565E+02 -0.44707E+02 -0.34482E+01  0.20914E+01 -0.29922E+01      982.00
  0.99084E-01  0.67603E+02    0.50000E-01  0.50000E-01 -0.10000E+00  0.00000E+00  0.00000E+00  0.00000E+00    0.21208E+02  0.23481E+02 -0.44689E+02 -0.35129E+01  0.21344E+01 -0.27127E+01      982.00
  0.12387E+00  0.67626E+02    0.62500E-01  0.62500E-01 -0.12500E+00  0.00000E+00  0.00000E+00  0.00000E+00    0.21308E+02  0.23414E+02 -0.44722E+02 -0.35794E+01  0.21747E+01 -0.23967E+01      982.00
  0.14867E+00  0.67717E+02    0.75000E-01  0.75000E-01 -0.15000E+00  0.00000E+00  0.00000E+00  0.00000E+00    0.21436E+02  0.23363E+02 -0.44798E+02 -0.36460E+01  0.22124E+01 -0.20536E+01      982.00
  0.17348E+00  0.67861E+02    0.87500E-01  0.87500E-01 -0.17500E+00  0.00000E+00  0.00000E+00  0.00000E+00    0.21585E+02  0.23324E+02 -0.44909E+02 -0.37113E+01  0.22474E+01 -0.16936E+01      982.00
  0.19830E+00  0.68045E+02    0.10000E+00  0.10000E+00 -0.20000E+00  0.00000E+00  0.00000E+00  0.00000E+00    0.21747E+02  0.23294E+02 -0.45042E+02 -0.37740E+01  0.22801E+01 -0.13268E+01      982.00
  0.22312E+00  0.68253E+02    0.11250E+00  0.11250E+00 -0.22500E+00  0.00000E+00  0.00000E+00  0.00000E+00    0.21916E+02  0.23271E+02 -0.45187E+02 -0.38331E+01  0.23110E+01 -0.96226E+00      982.00
  0.24795E+00  0.68472E+02    0.12500E+00  0.12500E+00 -0.25000E+00  0.00000E+00  0.00000E+00  0.00000E+00    0.22085E+02  0.23251E+02 -0.45336E+02 -0.38881E+01  0.23409E+01 -0.60679E+00      982.00
  0.27278E+00  0.68682E+02    0.13750E+00  0.13750E+00 -0.27500E+00  0.00000E+00  0.00000E+00  0.00000E+00    0.22248E+02  0.23227E+02 -0.45475E+02 -0.39412E+01  0.23663E+01 -0.24953E+00      982.00
  0.29761E+00  0.68892E+02    0.15000E+00  0.15000E+00 -0.30000E+00  0.00000E+00  0.00000E+00  0.00000E+00    0.22405E+02  0.23206E+02 -0.45610E+02 -0.39878E+01  0.23961E+01  0.74645E-01      982.00
  0.32243E+00  0.69087E+02    0.16250E+00  0.16250E+00 -0.32500E+00  0.00000E+00  0.00000E+00  0.00000E+00    0.22553E+02  0.23180E+02 -0.45733E+02 -0.40308E+01  0.24278E+01  0.38047E+00      982.00
  0.34726E+00  0.69263E+02    0.17500E+00  0.17500E+00 -0.35000E+00  0.00000E+00  0.00000E+00  0.00000E+00    0.22691E+02  0.23149E+02 -0.45840E+02 -0.40712E+01  0.24619E+01  0.66853E+00      982.00
  0.37207E+00  0.69419E+02    0.18750E+00  0.18750E+00 -0.37500E+00  0.00000E+00  0.00000E+00  0.00000E+00    0.22820E+02  0.23112E+02 -0.45932E+02 -0.41098E+01  0.24991E+01  0.93977E+00      982.00
  0.39689E+00  0.69556E+02    0.20000E+00  0.20000E+00 -0.40000E+00  0.00000E+00  0.00000E+00  0.00000E+00    0.22946E+02  0.23061E+02 -0.46008E+02 -0.41520E+01  0.25361E+01  0.12164E+01      982.00
  0.42169E+00  0.69672E+02    0.21250E+00  0.21250E+00 -0.42500E+00  0.00000E+00  0.00000E+00  0.00000E+00    0.23060E+02  0.23009E+02 -0.46069E+02 -0.41896E+01  0.25801E+01  0.14561E+01      982.00
  0.44649E+00  0.69770E+02    0.22500E+00  0.22500E+00 -0.45000E+00  0.00000E+00  0.00000E+00  0.00000E+00    0.23168E+02  0.22948E+02 -0.46116E+02 -0.42278E+01  0.26285E+01  0.16823E+01      982.00
  0.47127E+00  0.69851E+02    0.23750E+00  0.23750E+00 -0.47500E+00  0.00000E+00  0.00000E+00  0.00000E+00    0.23271E+02  0.22879E+02 -0.46150E+02 -0.42670E+01  0.26805E+01  0.18967E+01      982.00
  0.49605E+00  0.69917E+02    0.25000E+00  0.25000E+00 -0.50000E+00  0.00000E+00  0.00000E+00  0.00000E+00    0.23371E+02  0.22801E+02 -0.46172E+02 -0.43077E+01  0.27358E+01  0.21003E+01      982.00
  0.52081E+00  0.69975E+02    0.26250E+00  0.26250E+00 -0.52500E+00  0.00000E+00  0.00000E+00  0.00000E+00    0.23484E+02  0.22701E+02 -0.46185E+02 -0.43616E+01  0.27976E+01  0.23184E+01      982.00
  0.54556E+00  0.70013E+02    0.27500E+00  0.27500E+00 -0.55000E+00  0.00000E+00  0.00000E+00  0.00000E+00    0.23580E+02  0.22606E+02 -0.46186E+02 -0.44052E+01  0.28592E+01  0.24978E+01      982.00
  0.57030E+00  0.70044E+02    0.28750E+00  0.28750E+00 -0.57500E+00  0.00000E+00  0.00000E+00  0.00000E+00    0.23677E+02  0.22505E+02 -0.46182E+02 -0.44504E+01  0.29217E+01  0.26696E+01      982.00
  0.59503E+00  0.70066E+02    0.30000E+00  0.30000E+00 -0.60000E+00  0.00000E+00  0.00000E+00  0.00000E+00    0.23773E+02  0.22397E+02 -0.46170E+02 -0.44967E+01  0.29851E+01  0.28327E+01      982.00
  0.61974E+00  0.70080E+02    0.31250E+00  0.31250E+00 -0.62500E+00  0.00000E+00  0.00000E+00  0.00000E+00    0.23870E+02  0.22283E+02 -0.46153E+02 -0.45430E+01  0.30487E+01  0.29874E+01      982.00
  0.64443E+00  0.70089E+02    0.32500E+00  0.32500E+00 -0.65000E+00  0.00000E+00  0.00000E+00  0.00000E+00    0.23968E+02  0.22164E+02 -0.46132E+02 -0.45903E+01  0.31123E+01  0.31332E+01      982.00
  0.66912E+00  0.70094E+02    0.33750E+00  0.33750E+00 -0.67500E+00  0.00000E+00  0.00000E+00  0.00000E+00    0.24066E+02  0.22041E+02 -0.46107E+02 -0.46378E+01  0.31752E+01  0.32709E+01      982.00
  0.69378E+00  0.70095E+02    0.35000E+00  0.35000E+00 -0.70000E+00  0.00000E+00  0.00000E+00  0.00000E+00    0.24165E+02  0.21915E+02 -0.46080E+02 -0.46851E+01  0.32370E+01  0.34005E+01      982.00
  0.71844E+00  0.70093E+02    0.36250E+00  0.36250E+00 -0.72500E+00  0.00000E+00  0.00000E+00  0.00000E+00    0.24264E+02  0.21786E+02 -0.46050E+02 -0.47319E+01  0.32973E+01  0.35223E+01      982.00
  0.74307E+00  0.70088E+02    0.37500E+00  0.37500E+00 -0.75000E+00  0.00000E+00  0.00000E+00  0.00000E+00    0.24363E+02  0.21656E+02 -0.46019E+02 -0.47781E+01  0.33558E+01  0.36364E+01      982.00
  0.76770E+00  0.70082E+02    0.38750E+00  0.38750E+00 -0.77500E+00  0.00000E+00  0.00000E+00  0.00000E+00    0.24462E+02  0.21525E+02 -0.45987E+02 -0.48234E+01  0.34123E+01  0.37430E+01      982.00
  0.79230E+00  0.70074E+02    0.40000E+00  0.40000E+00 -0.80000E+00  0.00000E+00  0.00000E+00  0.00000E+00    0.24560E+02  0.21394E+02 -0.45954E+02 -0.48677E+01  0.34666E+01  0.38426E+01      982.00
  0.81689E+00  0.70065E+02    0.41250E+00  0.41250E+00 -0.82500E+00  0.00000E+00  0.00000E+00  0.00000E+00    0.24656E+02  0.21264E+02 -0.45920E+02 -0.49109E+01  0.35185E+01  0.39353E+01      982.00
  0.84147E+00  0.70049E+02    0.42500E+00  0.42500E+00 -0.85000E+00  0.00000E+00  0.00000E+00  0.00000E+00    0.24741E+02  0.21145E+02 -0.45886E+02 -0.49438E+01  0.35578E+01  0.40242E+01      982.00
  0.86604E+00  0.70039E+02    0.43750E+00  0.43750E+00 -0.87500E+00  0.00000E+00  0.00000E+00  0.00000E+00    0.24835E+02  0.21017E+02 -0.45852E+02 -0.49843E+01  0.36040E+01  0.41052E+01      982.00
  0.89059E+00  0.70029E+02    0.45000E+00  0.45000E+00 -0.90000E+00  0.00000E+00  0.00000E+00  0.00000E+00    0.24927E+02  0.20892E+02 -0.45820E+02 -0.50239E+01  0.36484E+01  0.41798E+01      982.00
  0.91512E+00  0.70016E+02    0.46250E+00  0.46250E+00 -0.92500E+00  0.00000E+00  0.00000E+00  0.00000E+00    0.25005E+02  0.20784E+02 -0.45789E+02 -0.50572E+01  0.36872E+01  0.42435E+01      982.00
  0.93965E+00  0.69967E+02    0.47500E+00  0.47500E+00 -0.95000E+00  0.00000E+00  0.00000E+00  0.00000E+00    0.25067E+02  0.20662E+02 -0.45728E+02 -0.51235E+01  0.37125E+01  0.43095E+01      982.00
  0.96416E+00  0.69907E+02    0.48750E+00  0.48750E+00 -0.97500E+00  0.00000E+00  0.00000E+00  0.00000E+00    0.25120E+02  0.20546E+02 -0.45666E+02 -0.51654E+01  0.37323E+01  0.43686E+01      982.00
  0.98865E+00  0.69848E+02    0.50000E+00  0.50000E+00 -0.10000E+01  0.00000E+00  0.00000E+00  0.00000E+00    0.25168E+02  0.20438E+02 -0.45605E+02 -0.52093E+01  0.37524E+01  0.44223E+01      982.00
