          Evm          Svm            E11          E22          E33          E23          E13          E12         SDEV11       SDEV22       SDEV33       SDEV23       SDEV13       SDEV12      TEMP
  0.00000E+00  0.64218E+02    0.00000E+00  0.00000E+00  0.00000E+00  0.00000E+00  0.00000E+00  0.00000E+00    0.19817E+02  0.21437E+02 -0.41253E+02 -0.43735E+01 -0.40247E+01 -0.78915E+01      982.00
  0.24090E-01  0.63975E+02    0.12500E-01  0.12500E-01 -0.25000E-01  0.00000E+00  0.00000E+00  0.00000E+00    0.19940E+02  0.21260E+02 -0.41200E+02 -0.41867E+01 -0.40311E+01 -0.75475E+01      982.00
  0.48240E-01  0.63834E+02    0.25000E-01  0.25000E-01 -0.50000E-01  0.00000E+00  0.00000E+00  0.00000E+00    0.20026E+02  0.21166E+02 -0.41192E+02 -0.40649E+01 -0.40758E+01 -0.72264E+01      982.00
  0.72439E-01  0.63792E+02    0.37500E-01  0.37500E-01 -0.75000E-01  0.00000E+00  0.00000E+00  0.00000E+00    0.20117E+02  0.21106E+02 -0.41223E+02 -0.39861E+01 -0.41661E+01 -0.69646E+01      982.00
  0.96671E-01  0.63824E+02    0.50000E-01  0.50000E-01 -0.10000E+00  0.00000E+00  0.00000E+00  0.00000E+00    0.20197E+02  0.21084E+02 -0.41281E+02 -0.39428E+01 -0.42642E+01 -0.67684E+01      982.00
  0.12093E+00  0.63917E+02    0.62500E-01  0.62500E-01 -0.12500E+00  0.00000E+00  0.00000E+00  0.00000E+00    0.20279E+02  0.21085E+02 -0.41364E+02 -0.39197E+01 -0.43587E+01 -0.66358E+01      982.00
  0.14519E+00  0.64055E+02    0.75000E-01  0.75000E-01 -0.15000E+00  0.00000E+00  0.00000E+00  0.00000E+00    0.20364E+02  0.21103E+02 -0.41466E+02 -0.39080E+01 -0.44381E+01 -0.65543E+01      982.00
  0.16947E+00  0.64228E+02    0.87500E-01  0.87500E-01 -0.17500E+00  0.00000E+00  0.00000E+00  0.00000E+00    0.20449E+02  0.21135E+02 -0.41584E+02 -0.39068E+01 -0.45024E+01 -0.65187E+01      982.00
  0.19375E+00  0.64440E+02    0.10000E+00  0.10000E+00 -0.20000E+00  0.00000E+00  0.00000E+00  0.00000E+00    0.20547E+02  0.21176E+02 -0.41723E+02 -0.39094E+01 -0.45531E+01 -0.65162E+01      982.00
  0.21803E+00  0.64666E+02    0.11250E+00  0.11250E+00 -0.22500E+00  0.00000E+00  0.00000E+00  0.00000E+00    0.20659E+02  0.21209E+02 -0.41869E+02 -0.39106E+01 -0.45936E+01 -0.65346E+01      982.00
  0.24231E+00  0.64926E+02    0.12500E+00  0.12500E+00 -0.25000E+00  0.00000E+00  0.00000E+00  0.00000E+00    0.20785E+02  0.21250E+02 -0.42034E+02 -0.39151E+01 -0.46247E+01 -0.65720E+01      982.00
  0.26659E+00  0.65198E+02    0.13750E+00  0.13750E+00 -0.27500E+00  0.00000E+00  0.00000E+00  0.00000E+00    0.20923E+02  0.21285E+02 -0.42208E+02 -0.39198E+01 -0.46490E+01 -0.66187E+01      982.00
  0.29086E+00  0.65479E+02    0.15000E+00  0.15000E+00 -0.30000E+00  0.00000E+00  0.00000E+00  0.00000E+00    0.21073E+02  0.21313E+02 -0.42386E+02 -0.39245E+01 -0.46685E+01 -0.66703E+01      982.00
  0.31514E+00  0.65756E+02    0.16250E+00  0.16250E+00 -0.32500E+00  0.00000E+00  0.00000E+00  0.00000E+00    0.21233E+02  0.21331E+02 -0.42564E+02 -0.39287E+01 -0.46835E+01 -0.67216E+01      982.00
  0.33941E+00  0.66028E+02    0.17500E+00  0.17500E+00 -0.35000E+00  0.00000E+00  0.00000E+00  0.00000E+00    0.21400E+02  0.21338E+02 -0.42738E+02 -0.39326E+01 -0.46954E+01 -0.67703E+01      982.00
  0.36369E+00  0.66289E+02    0.18750E+00  0.18750E+00 -0.37500E+00  0.00000E+00  0.00000E+00  0.00000E+00    0.21573E+02  0.21332E+02 -0.42905E+02 -0.39365E+01 -0.47047E+01 -0.68145E+01      982.00
  0.38796E+00  0.66536E+02    0.20000E+00  0.20000E+00 -0.40000E+00  0.00000E+00  0.00000E+00  0.00000E+00    0.21751E+02  0.21314E+02 -0.43065E+02 -0.39404E+01 -0.47121E+01 -0.68530E+01      982.00
  0.41223E+00  0.66768E+02    0.21250E+00  0.21250E+00 -0.42500E+00  0.00000E+00  0.00000E+00  0.00000E+00    0.21932E+02  0.21283E+02 -0.43215E+02 -0.39445E+01 -0.47179E+01 -0.68852E+01      982.00
  0.43650E+00  0.66991E+02    0.22500E+00  0.22500E+00 -0.45000E+00  0.00000E+00  0.00000E+00  0.00000E+00    0.22110E+02  0.21249E+02 -0.43360E+02 -0.39531E+01 -0.47190E+01 -0.69145E+01      982.00
  0.46077E+00  0.67189E+02    0.23750E+00  0.23750E+00 -0.47500E+00  0.00000E+00  0.00000E+00  0.00000E+00    0.22295E+02  0.21194E+02 -0.43489E+02 -0.39578E+01 -0.47218E+01 -0.69334E+01      982.00
  0.48504E+00  0.67371E+02    0.25000E+00  0.25000E+00 -0.50000E+00  0.00000E+00  0.00000E+00  0.00000E+00    0.22480E+02  0.21128E+02 -0.43608E+02 -0.39625E+01 -0.47240E+01 -0.69458E+01      982.00
  0.50932E+00  0.67537E+02    0.26250E+00  0.26250E+00 -0.52500E+00  0.00000E+00  0.00000E+00  0.00000E+00    0.22671E+02  0.21047E+02 -0.43717E+02 -0.39617E+01 -0.47274E+01 -0.69496E+01      982.00
  0.53359E+00  0.67689E+02    0.27500E+00  0.27500E+00 -0.55000E+00  0.00000E+00  0.00000E+00  0.00000E+00    0.22857E+02  0.20960E+02 -0.43817E+02 -0.39668E+01 -0.47287E+01 -0.69503E+01      982.00
  0.55787E+00  0.67827E+02    0.28750E+00  0.28750E+00 -0.57500E+00  0.00000E+00  0.00000E+00  0.00000E+00    0.23043E+02  0.20865E+02 -0.43908E+02 -0.39721E+01 -0.47292E+01 -0.69455E+01      982.00
  0.58214E+00  0.67952E+02    0.30000E+00  0.30000E+00 -0.60000E+00  0.00000E+00  0.00000E+00  0.00000E+00    0.23229E+02  0.20761E+02 -0.43990E+02 -0.39773E+01 -0.47291E+01 -0.69354E+01      982.00
  0.60642E+00  0.68066E+02    0.31250E+00  0.31250E+00 -0.62500E+00  0.00000E+00  0.00000E+00  0.00000E+00    0.23414E+02  0.20651E+02 -0.44065E+02 -0.39825E+01 -0.47285E+01 -0.69205E+01      982.00
  0.63070E+00  0.68169E+02    0.32500E+00  0.32500E+00 -0.65000E+00  0.00000E+00  0.00000E+00  0.00000E+00    0.23598E+02  0.20535E+02 -0.44133E+02 -0.39870E+01 -0.47271E+01 -0.69007E+01      982.00
  0.65497E+00  0.68262E+02    0.33750E+00  0.33750E+00 -0.67500E+00  0.00000E+00  0.00000E+00  0.00000E+00    0.23781E+02  0.20413E+02 -0.44194E+02 -0.39919E+01 -0.47253E+01 -0.68769E+01      982.00
  0.67925E+00  0.68347E+02    0.35000E+00  0.35000E+00 -0.70000E+00  0.00000E+00  0.00000E+00  0.00000E+00    0.23963E+02  0.20286E+02 -0.44250E+02 -0.39966E+01 -0.47230E+01 -0.68491E+01      982.00
  0.70353E+00  0.68423E+02    0.36250E+00  0.36250E+00 -0.72500E+00  0.00000E+00  0.00000E+00  0.00000E+00    0.24144E+02  0.20156E+02 -0.44300E+02 -0.40010E+01 -0.47201E+01 -0.68174E+01      982.00
  0.72781E+00  0.68493E+02    0.37500E+00  0.37500E+00 -0.75000E+00  0.00000E+00  0.00000E+00  0.00000E+00    0.24323E+02  0.20022E+02 -0.44345E+02 -0.40052E+01 -0.47166E+01 -0.67823E+01      982.00
  0.75209E+00  0.68556E+02    0.38750E+00  0.38750E+00 -0.77500E+00  0.00000E+00  0.00000E+00  0.00000E+00    0.24501E+02  0.19885E+02 -0.44386E+02 -0.40091E+01 -0.47126E+01 -0.67437E+01      982.00
  0.77637E+00  0.68613E+02    0.40000E+00  0.40000E+00 -0.80000E+00  0.00000E+00  0.00000E+00  0.00000E+00    0.24676E+02  0.19746E+02 -0.44422E+02 -0.40127E+01 -0.47080E+01 -0.67021E+01      982.00
  0.80064E+00  0.68666E+02    0.41250E+00  0.41250E+00 -0.82500E+00  0.00000E+00  0.00000E+00  0.00000E+00    0.24850E+02  0.19606E+02 -0.44456E+02 -0.40161E+01 -0.47029E+01 -0.66575E+01      982.00
  0.82492E+00  0.68715E+02    0.42500E+00  0.42500E+00 -0.85000E+00  0.00000E+00  0.00000E+00  0.00000E+00    0.25021E+02  0.19465E+02 -0.44486E+02 -0.40115E+01 -0.47059E+01 -0.66115E+01      982.00
  0.84920E+00  0.68759E+02    0.43750E+00  0.43750E+00 -0.87500E+00  0.00000E+00  0.00000E+00  0.00000E+00    0.25190E+02  0.19323E+02 -0.44513E+02 -0.40142E+01 -0.46997E+01 -0.65620E+01      982.00
  0.87348E+00  0.68800E+02    0.45000E+00  0.45000E+00 -0.90000E+00  0.00000E+00  0.00000E+00  0.00000E+00    0.25356E+02  0.19182E+02 -0.44538E+02 -0.40170E+01 -0.46924E+01 -0.65103E+01      982.00
  0.89775E+00  0.68778E+02    0.46250E+00  0.46250E+00 -0.92500E+00  0.00000E+00  0.00000E+00  0.00000E+00    0.25480E+02  0.19048E+02 -0.44528E+02 -0.40093E+01 -0.46600E+01 -0.64518E+01      982.00
  0.92203E+00  0.68758E+02    0.47500E+00  0.47500E+00 -0.95000E+00  0.00000E+00  0.00000E+00  0.00000E+00    0.25607E+02  0.18911E+02 -0.44518E+02 -0.39992E+01 -0.46319E+01 -0.63909E+01      982.00
  0.94631E+00  0.68739E+02    0.48750E+00  0.48750E+00 -0.97500E+00  0.00000E+00  0.00000E+00  0.00000E+00    0.25732E+02  0.18776E+02 -0.44508E+02 -0.39890E+01 -0.46044E+01 -0.63293E+01      982.00
  0.97059E+00  0.68723E+02    0.50000E+00  0.50000E+00 -0.10000E+01  0.00000E+00  0.00000E+00  0.00000E+00    0.25855E+02  0.18645E+02 -0.44500E+02 -0.39717E+01 -0.45835E+01 -0.62691E+01      982.00
