          Evm          Svm            E11          E22          E33          E23          E13          E12         SDEV11       SDEV22       SDEV33       SDEV23       SDEV13       SDEV12      TEMP
  0.00000E+00  0.57558E+02    0.00000E+00  0.00000E+00  0.00000E+00  0.00000E+00  0.00000E+00  0.00000E+00    0.15916E+02  0.16860E+02 -0.32776E+02 -0.23578E+01  0.71215E+00  0.17097E+02      982.00
  0.21354E-01  0.57486E+02    0.12500E-01  0.12500E-01 -0.25000E-01  0.00000E+00  0.00000E+00  0.00000E+00    0.15898E+02  0.16912E+02 -0.32809E+02 -0.25506E+01  0.10761E+01  0.16920E+02      982.00
  0.42757E-01  0.57532E+02    0.25000E-01  0.25000E-01 -0.50000E-01  0.00000E+00  0.00000E+00  0.00000E+00    0.15929E+02  0.16962E+02 -0.32891E+02 -0.26868E+01  0.13474E+01  0.16812E+02      982.00
  0.64196E-01  0.57663E+02    0.37500E-01  0.37500E-01 -0.75000E-01  0.00000E+00  0.00000E+00  0.00000E+00    0.15982E+02  0.17026E+02 -0.33008E+02 -0.27687E+01  0.15303E+01  0.16760E+02      982.00
  0.85662E-01  0.57870E+02    0.50000E-01  0.50000E-01 -0.10000E+00  0.00000E+00  0.00000E+00  0.00000E+00    0.16052E+02  0.17106E+02 -0.33158E+02 -0.28179E+01  0.16673E+01  0.16756E+02      982.00
  0.10715E+00  0.58140E+02    0.62500E-01  0.62500E-01 -0.12500E+00  0.00000E+00  0.00000E+00  0.00000E+00    0.16133E+02  0.17198E+02 -0.33332E+02 -0.28399E+01  0.17624E+01  0.16795E+02      982.00
  0.12865E+00  0.58478E+02    0.75000E-01  0.75000E-01 -0.15000E+00  0.00000E+00  0.00000E+00  0.00000E+00    0.16226E+02  0.17303E+02 -0.33529E+02 -0.28468E+01  0.18213E+01  0.16883E+02      982.00
  0.15015E+00  0.58865E+02    0.87500E-01  0.87500E-01 -0.17500E+00  0.00000E+00  0.00000E+00  0.00000E+00    0.16328E+02  0.17418E+02 -0.33747E+02 -0.28458E+01  0.18626E+01  0.17001E+02      982.00
  0.17165E+00  0.59253E+02    0.10000E+00  0.10000E+00 -0.20000E+00  0.00000E+00  0.00000E+00  0.00000E+00    0.16430E+02  0.17533E+02 -0.33963E+02 -0.28295E+01  0.18886E+01  0.17125E+02      982.00
  0.19314E+00  0.59674E+02    0.11250E+00  0.11250E+00 -0.22500E+00  0.00000E+00  0.00000E+00  0.00000E+00    0.16541E+02  0.17654E+02 -0.34194E+02 -0.28177E+01  0.19064E+01  0.17268E+02      982.00
  0.21463E+00  0.60096E+02    0.12500E+00  0.12500E+00 -0.25000E+00  0.00000E+00  0.00000E+00  0.00000E+00    0.16653E+02  0.17773E+02 -0.34427E+02 -0.28047E+01  0.19186E+01  0.17410E+02      982.00
  0.23611E+00  0.60515E+02    0.13750E+00  0.13750E+00 -0.27500E+00  0.00000E+00  0.00000E+00  0.00000E+00    0.16766E+02  0.17889E+02 -0.34655E+02 -0.27831E+01  0.19260E+01  0.17555E+02      982.00
  0.25759E+00  0.60917E+02    0.15000E+00  0.15000E+00 -0.30000E+00  0.00000E+00  0.00000E+00  0.00000E+00    0.16881E+02  0.18001E+02 -0.34882E+02 -0.27686E+01  0.19325E+01  0.17683E+02      982.00
  0.27906E+00  0.61299E+02    0.16250E+00  0.16250E+00 -0.32500E+00  0.00000E+00  0.00000E+00  0.00000E+00    0.16994E+02  0.18107E+02 -0.35101E+02 -0.27544E+01  0.19372E+01  0.17798E+02      982.00
  0.30053E+00  0.61681E+02    0.17500E+00  0.17500E+00 -0.35000E+00  0.00000E+00  0.00000E+00  0.00000E+00    0.17112E+02  0.18208E+02 -0.35320E+02 -0.27321E+01  0.19405E+01  0.17918E+02      982.00
  0.32201E+00  0.62013E+02    0.18750E+00  0.18750E+00 -0.37500E+00  0.00000E+00  0.00000E+00  0.00000E+00    0.17222E+02  0.18298E+02 -0.35520E+02 -0.27152E+01  0.19424E+01  0.18005E+02      982.00
  0.34349E+00  0.62321E+02    0.20000E+00  0.20000E+00 -0.40000E+00  0.00000E+00  0.00000E+00  0.00000E+00    0.17330E+02  0.18381E+02 -0.35711E+02 -0.26990E+01  0.19431E+01  0.18080E+02      982.00
  0.36497E+00  0.62606E+02    0.21250E+00  0.21250E+00 -0.42500E+00  0.00000E+00  0.00000E+00  0.00000E+00    0.17434E+02  0.18457E+02 -0.35890E+02 -0.26823E+01  0.19425E+01  0.18143E+02      982.00
  0.38647E+00  0.62867E+02    0.22500E+00  0.22500E+00 -0.45000E+00  0.00000E+00  0.00000E+00  0.00000E+00    0.17535E+02  0.18525E+02 -0.36060E+02 -0.26647E+01  0.19407E+01  0.18196E+02      982.00
  0.40798E+00  0.63113E+02    0.23750E+00  0.23750E+00 -0.47500E+00  0.00000E+00  0.00000E+00  0.00000E+00    0.17632E+02  0.18588E+02 -0.36221E+02 -0.26465E+01  0.19374E+01  0.18243E+02      982.00
  0.42950E+00  0.63333E+02    0.25000E+00  0.25000E+00 -0.50000E+00  0.00000E+00  0.00000E+00  0.00000E+00    0.17726E+02  0.18643E+02 -0.36370E+02 -0.26276E+01  0.19332E+01  0.18278E+02      982.00
  0.45104E+00  0.63534E+02    0.26250E+00  0.26250E+00 -0.52500E+00  0.00000E+00  0.00000E+00  0.00000E+00    0.17817E+02  0.18692E+02 -0.36509E+02 -0.26081E+01  0.19281E+01  0.18306E+02      982.00
  0.47259E+00  0.63719E+02    0.27500E+00  0.27500E+00 -0.55000E+00  0.00000E+00  0.00000E+00  0.00000E+00    0.17904E+02  0.18736E+02 -0.36640E+02 -0.25883E+01  0.19222E+01  0.18328E+02      982.00
  0.49415E+00  0.63889E+02    0.28750E+00  0.28750E+00 -0.57500E+00  0.00000E+00  0.00000E+00  0.00000E+00    0.17988E+02  0.18774E+02 -0.36762E+02 -0.25683E+01  0.19154E+01  0.18346E+02      982.00
  0.51573E+00  0.64044E+02    0.30000E+00  0.30000E+00 -0.60000E+00  0.00000E+00  0.00000E+00  0.00000E+00    0.18069E+02  0.18808E+02 -0.36877E+02 -0.25481E+01  0.19080E+01  0.18359E+02      982.00
  0.53732E+00  0.64187E+02    0.31250E+00  0.31250E+00 -0.62500E+00  0.00000E+00  0.00000E+00  0.00000E+00    0.18146E+02  0.18837E+02 -0.36983E+02 -0.25280E+01  0.19001E+01  0.18368E+02      982.00
  0.55893E+00  0.64318E+02    0.32500E+00  0.32500E+00 -0.65000E+00  0.00000E+00  0.00000E+00  0.00000E+00    0.18221E+02  0.18862E+02 -0.37083E+02 -0.25080E+01  0.18917E+01  0.18374E+02      982.00
  0.58055E+00  0.64426E+02    0.33750E+00  0.33750E+00 -0.67500E+00  0.00000E+00  0.00000E+00  0.00000E+00    0.18284E+02  0.18881E+02 -0.37165E+02 -0.24928E+01  0.18858E+01  0.18379E+02      982.00
  0.60218E+00  0.64539E+02    0.35000E+00  0.35000E+00 -0.70000E+00  0.00000E+00  0.00000E+00  0.00000E+00    0.18353E+02  0.18900E+02 -0.37253E+02 -0.24739E+01  0.18770E+01  0.18381E+02      982.00
  0.62383E+00  0.64643E+02    0.36250E+00  0.36250E+00 -0.72500E+00  0.00000E+00  0.00000E+00  0.00000E+00    0.18419E+02  0.18915E+02 -0.37335E+02 -0.24550E+01  0.18680E+01  0.18382E+02      982.00
  0.64548E+00  0.64739E+02    0.37500E+00  0.37500E+00 -0.75000E+00  0.00000E+00  0.00000E+00  0.00000E+00    0.18483E+02  0.18928E+02 -0.37412E+02 -0.24365E+01  0.18589E+01  0.18382E+02      982.00
  0.66715E+00  0.64828E+02    0.38750E+00  0.38750E+00 -0.77500E+00  0.00000E+00  0.00000E+00  0.00000E+00    0.18545E+02  0.18938E+02 -0.37483E+02 -0.24186E+01  0.18498E+01  0.18380E+02      982.00
  0.68884E+00  0.64910E+02    0.40000E+00  0.40000E+00 -0.80000E+00  0.00000E+00  0.00000E+00  0.00000E+00    0.18604E+02  0.18946E+02 -0.37550E+02 -0.24013E+01  0.18408E+01  0.18378E+02      982.00
  0.71053E+00  0.64986E+02    0.41250E+00  0.41250E+00 -0.82500E+00  0.00000E+00  0.00000E+00  0.00000E+00    0.18661E+02  0.18951E+02 -0.37612E+02 -0.23847E+01  0.18319E+01  0.18375E+02      982.00
  0.73223E+00  0.65057E+02    0.42500E+00  0.42500E+00 -0.85000E+00  0.00000E+00  0.00000E+00  0.00000E+00    0.18716E+02  0.18955E+02 -0.37671E+02 -0.23688E+01  0.18232E+01  0.18372E+02      982.00
  0.75395E+00  0.65123E+02    0.43750E+00  0.43750E+00 -0.87500E+00  0.00000E+00  0.00000E+00  0.00000E+00    0.18769E+02  0.18956E+02 -0.37725E+02 -0.23536E+01  0.18148E+01  0.18369E+02      982.00
  0.77567E+00  0.65184E+02    0.45000E+00  0.45000E+00 -0.90000E+00  0.00000E+00  0.00000E+00  0.00000E+00    0.18820E+02  0.18956E+02 -0.37776E+02 -0.23391E+01  0.18065E+01  0.18365E+02      982.00
  0.79741E+00  0.65241E+02    0.46250E+00  0.46250E+00 -0.92500E+00  0.00000E+00  0.00000E+00  0.00000E+00    0.18870E+02  0.18955E+02 -0.37824E+02 -0.23254E+01  0.17986E+01  0.18362E+02      982.00
  0.81915E+00  0.65294E+02    0.47500E+00  0.47500E+00 -0.95000E+00  0.00000E+00  0.00000E+00  0.00000E+00    0.18917E+02  0.18952E+02 -0.37869E+02 -0.23125E+01  0.17909E+01  0.18358E+02      982.00
  0.84090E+00  0.65344E+02    0.48750E+00  0.48750E+00 -0.97500E+00  0.00000E+00  0.00000E+00  0.00000E+00    0.18964E+02  0.18947E+02 -0.37911E+02 -0.23002E+01  0.17836E+01  0.18354E+02      982.00
  0.86265E+00  0.65349E+02    0.50000E+00  0.50000E+00 -0.10000E+01  0.00000E+00  0.00000E+00  0.00000E+00    0.18989E+02  0.18933E+02 -0.37922E+02 -0.22804E+01  0.17729E+01  0.18347E+02      982.00
