          Evm          Svm            E11          E22          E33          E23          E13          E12         SDEV11       SDEV22       SDEV33       SDEV23       SDEV13       SDEV12      TEMP
  0.00000E+00  0.57873E+02    0.00000E+00  0.00000E+00  0.00000E+00  0.00000E+00  0.00000E+00  0.00000E+00    0.18245E+02  0.17241E+02 -0.35486E+02 -0.20798E+01  0.25236E+01  0.12690E+02      982.00
  0.22994E-01  0.57930E+02    0.12500E-01  0.12500E-01 -0.25000E-01  0.00000E+00  0.00000E+00  0.00000E+00    0.18124E+02  0.17329E+02 -0.35453E+02 -0.21880E+01  0.24947E+01  0.12835E+02      982.00
  0.45944E-01  0.58070E+02    0.25000E-01  0.25000E-01 -0.50000E-01  0.00000E+00  0.00000E+00  0.00000E+00    0.18074E+02  0.17386E+02 -0.35459E+02 -0.22599E+01  0.24894E+01  0.13023E+02      982.00
  0.68843E-01  0.58275E+02    0.37500E-01  0.37500E-01 -0.75000E-01  0.00000E+00  0.00000E+00  0.00000E+00    0.18052E+02  0.17442E+02 -0.35494E+02 -0.23173E+01  0.24835E+01  0.13247E+02      982.00
  0.91683E-01  0.58538E+02    0.50000E-01  0.50000E-01 -0.10000E+00  0.00000E+00  0.00000E+00  0.00000E+00    0.18050E+02  0.17507E+02 -0.35557E+02 -0.23640E+01  0.24683E+01  0.13500E+02      982.00
  0.11446E+00  0.58849E+02    0.62500E-01  0.62500E-01 -0.12500E+00  0.00000E+00  0.00000E+00  0.00000E+00    0.18068E+02  0.17574E+02 -0.35642E+02 -0.23959E+01  0.24507E+01  0.13778E+02      982.00
  0.13717E+00  0.59193E+02    0.75000E-01  0.75000E-01 -0.15000E+00  0.00000E+00  0.00000E+00  0.00000E+00    0.18096E+02  0.17650E+02 -0.35746E+02 -0.24172E+01  0.24212E+01  0.14066E+02      982.00
  0.15982E+00  0.59553E+02    0.87500E-01  0.87500E-01 -0.17500E+00  0.00000E+00  0.00000E+00  0.00000E+00    0.18137E+02  0.17719E+02 -0.35857E+02 -0.24239E+01  0.23965E+01  0.14361E+02      982.00
  0.18240E+00  0.59919E+02    0.10000E+00  0.10000E+00 -0.20000E+00  0.00000E+00  0.00000E+00  0.00000E+00    0.18177E+02  0.17800E+02 -0.35977E+02 -0.24225E+01  0.23543E+01  0.14647E+02      982.00
  0.20491E+00  0.60298E+02    0.11250E+00  0.11250E+00 -0.22500E+00  0.00000E+00  0.00000E+00  0.00000E+00    0.18224E+02  0.17881E+02 -0.36105E+02 -0.24105E+01  0.23106E+01  0.14936E+02      982.00
  0.22737E+00  0.60669E+02    0.12500E+00  0.12500E+00 -0.25000E+00  0.00000E+00  0.00000E+00  0.00000E+00    0.18271E+02  0.17963E+02 -0.36233E+02 -0.23909E+01  0.22629E+01  0.15212E+02      982.00
  0.24976E+00  0.61028E+02    0.13750E+00  0.13750E+00 -0.27500E+00  0.00000E+00  0.00000E+00  0.00000E+00    0.18317E+02  0.18043E+02 -0.36360E+02 -0.23656E+01  0.22127E+01  0.15473E+02      982.00
  0.27211E+00  0.61364E+02    0.15000E+00  0.15000E+00 -0.30000E+00  0.00000E+00  0.00000E+00  0.00000E+00    0.18358E+02  0.18125E+02 -0.36483E+02 -0.23361E+01  0.21559E+01  0.15711E+02      982.00
  0.29440E+00  0.61690E+02    0.16250E+00  0.16250E+00 -0.32500E+00  0.00000E+00  0.00000E+00  0.00000E+00    0.18401E+02  0.18201E+02 -0.36602E+02 -0.23053E+01  0.21057E+01  0.15937E+02      982.00
  0.31665E+00  0.61996E+02    0.17500E+00  0.17500E+00 -0.35000E+00  0.00000E+00  0.00000E+00  0.00000E+00    0.18440E+02  0.18278E+02 -0.36717E+02 -0.22695E+01  0.20477E+01  0.16146E+02      982.00
  0.33886E+00  0.62282E+02    0.18750E+00  0.18750E+00 -0.37500E+00  0.00000E+00  0.00000E+00  0.00000E+00    0.18481E+02  0.18346E+02 -0.36827E+02 -0.22393E+01  0.20030E+01  0.16335E+02      982.00
  0.36103E+00  0.62535E+02    0.20000E+00  0.20000E+00 -0.40000E+00  0.00000E+00  0.00000E+00  0.00000E+00    0.18523E+02  0.18403E+02 -0.36927E+02 -0.22168E+01  0.19745E+01  0.16494E+02      982.00
  0.38318E+00  0.62786E+02    0.21250E+00  0.21250E+00 -0.42500E+00  0.00000E+00  0.00000E+00  0.00000E+00    0.18563E+02  0.18463E+02 -0.37027E+02 -0.21898E+01  0.19368E+01  0.16651E+02      982.00
  0.40529E+00  0.63003E+02    0.22500E+00  0.22500E+00 -0.45000E+00  0.00000E+00  0.00000E+00  0.00000E+00    0.18595E+02  0.18519E+02 -0.37114E+02 -0.21633E+01  0.18967E+01  0.16785E+02      982.00
  0.42738E+00  0.63218E+02    0.23750E+00  0.23750E+00 -0.47500E+00  0.00000E+00  0.00000E+00  0.00000E+00    0.18629E+02  0.18573E+02 -0.37202E+02 -0.21361E+01  0.18565E+01  0.16917E+02      982.00
  0.44945E+00  0.63413E+02    0.25000E+00  0.25000E+00 -0.50000E+00  0.00000E+00  0.00000E+00  0.00000E+00    0.18668E+02  0.18617E+02 -0.37285E+02 -0.21234E+01  0.18395E+01  0.17025E+02      982.00
  0.47150E+00  0.63594E+02    0.26250E+00  0.26250E+00 -0.52500E+00  0.00000E+00  0.00000E+00  0.00000E+00    0.18701E+02  0.18660E+02 -0.37361E+02 -0.21019E+01  0.18081E+01  0.17132E+02      982.00
  0.49353E+00  0.63767E+02    0.27500E+00  0.27500E+00 -0.55000E+00  0.00000E+00  0.00000E+00  0.00000E+00    0.18737E+02  0.18699E+02 -0.37436E+02 -0.20889E+01  0.17888E+01  0.17226E+02      982.00
  0.51555E+00  0.63943E+02    0.28750E+00  0.28750E+00 -0.57500E+00  0.00000E+00  0.00000E+00  0.00000E+00    0.18774E+02  0.18738E+02 -0.37512E+02 -0.20698E+01  0.17610E+01  0.17326E+02      982.00
  0.53755E+00  0.64087E+02    0.30000E+00  0.30000E+00 -0.60000E+00  0.00000E+00  0.00000E+00  0.00000E+00    0.18808E+02  0.18769E+02 -0.37576E+02 -0.20611E+01  0.17467E+01  0.17400E+02      982.00
  0.55953E+00  0.64220E+02    0.31250E+00  0.31250E+00 -0.62500E+00  0.00000E+00  0.00000E+00  0.00000E+00    0.18841E+02  0.18795E+02 -0.37637E+02 -0.20543E+01  0.17352E+01  0.17468E+02      982.00
  0.58151E+00  0.64304E+02    0.32500E+00  0.32500E+00 -0.65000E+00  0.00000E+00  0.00000E+00  0.00000E+00    0.18866E+02  0.18812E+02 -0.37678E+02 -0.20554E+01  0.17358E+01  0.17505E+02      982.00
  0.60348E+00  0.64449E+02    0.33750E+00  0.33750E+00 -0.67500E+00  0.00000E+00  0.00000E+00  0.00000E+00    0.18903E+02  0.18834E+02 -0.37738E+02 -0.20406E+01  0.17113E+01  0.17589E+02      982.00
  0.62544E+00  0.64559E+02    0.35000E+00  0.35000E+00 -0.70000E+00  0.00000E+00  0.00000E+00  0.00000E+00    0.18937E+02  0.18854E+02 -0.37790E+02 -0.20367E+01  0.17025E+01  0.17639E+02      982.00
  0.64739E+00  0.64654E+02    0.36250E+00  0.36250E+00 -0.72500E+00  0.00000E+00  0.00000E+00  0.00000E+00    0.18967E+02  0.18868E+02 -0.37835E+02 -0.20349E+01  0.16966E+01  0.17684E+02      982.00
  0.66934E+00  0.64744E+02    0.37500E+00  0.37500E+00 -0.75000E+00  0.00000E+00  0.00000E+00  0.00000E+00    0.18997E+02  0.18881E+02 -0.37878E+02 -0.20338E+01  0.16919E+01  0.17726E+02      982.00
  0.69128E+00  0.64828E+02    0.38750E+00  0.38750E+00 -0.77500E+00  0.00000E+00  0.00000E+00  0.00000E+00    0.19027E+02  0.18892E+02 -0.37918E+02 -0.20333E+01  0.16879E+01  0.17764E+02      982.00
  0.71321E+00  0.64906E+02    0.40000E+00  0.40000E+00 -0.80000E+00  0.00000E+00  0.00000E+00  0.00000E+00    0.19056E+02  0.18900E+02 -0.37956E+02 -0.20334E+01  0.16846E+01  0.17799E+02      982.00
  0.73514E+00  0.64979E+02    0.41250E+00  0.41250E+00 -0.82500E+00  0.00000E+00  0.00000E+00  0.00000E+00    0.19084E+02  0.18907E+02 -0.37991E+02 -0.20340E+01  0.16817E+01  0.17831E+02      982.00
  0.75706E+00  0.65085E+02    0.42500E+00  0.42500E+00 -0.85000E+00  0.00000E+00  0.00000E+00  0.00000E+00    0.19129E+02  0.18911E+02 -0.38040E+02 -0.20320E+01  0.16730E+01  0.17883E+02      982.00
  0.77898E+00  0.65145E+02    0.43750E+00  0.43750E+00 -0.87500E+00  0.00000E+00  0.00000E+00  0.00000E+00    0.19158E+02  0.18911E+02 -0.38069E+02 -0.20325E+01  0.16688E+01  0.17910E+02      982.00
  0.80090E+00  0.65201E+02    0.45000E+00  0.45000E+00 -0.90000E+00  0.00000E+00  0.00000E+00  0.00000E+00    0.19184E+02  0.18912E+02 -0.38096E+02 -0.20345E+01  0.16670E+01  0.17934E+02      982.00
  0.82281E+00  0.65254E+02    0.46250E+00  0.46250E+00 -0.92500E+00  0.00000E+00  0.00000E+00  0.00000E+00    0.19211E+02  0.18911E+02 -0.38122E+02 -0.20372E+01  0.16661E+01  0.17957E+02      982.00
  0.84471E+00  0.65304E+02    0.47500E+00  0.47500E+00 -0.95000E+00  0.00000E+00  0.00000E+00  0.00000E+00    0.19237E+02  0.18910E+02 -0.38147E+02 -0.20400E+01  0.16655E+01  0.17978E+02      982.00
  0.86662E+00  0.65351E+02    0.48750E+00  0.48750E+00 -0.97500E+00  0.00000E+00  0.00000E+00  0.00000E+00    0.19263E+02  0.18907E+02 -0.38170E+02 -0.20431E+01  0.16651E+01  0.17997E+02      982.00
  0.88852E+00  0.65341E+02    0.50000E+00  0.50000E+00 -0.10000E+01  0.00000E+00  0.00000E+00  0.00000E+00    0.19249E+02  0.18919E+02 -0.38167E+02 -0.20452E+01  0.16705E+01  0.17988E+02      982.00
