          Evm          Svm            E11          E22          E33          E23          E13          E12         SDEV11       SDEV22       SDEV33       SDEV23       SDEV13       SDEV12      TEMP
  0.00000E+00  0.57602E+02    0.00000E+00  0.00000E+00  0.00000E+00  0.00000E+00  0.00000E+00  0.00000E+00    0.17397E+02  0.17800E+02 -0.35197E+02 -0.27006E+01  0.21755E+01  0.12838E+02      982.00
  0.22914E-01  0.57679E+02    0.12500E-01  0.12500E-01 -0.25000E-01  0.00000E+00  0.00000E+00  0.00000E+00    0.17484E+02  0.17696E+02 -0.35180E+02 -0.26604E+01  0.22476E+01  0.12985E+02      982.00
  0.45786E-01  0.57826E+02    0.25000E-01  0.25000E-01 -0.50000E-01  0.00000E+00  0.00000E+00  0.00000E+00    0.17560E+02  0.17631E+02 -0.35191E+02 -0.26384E+01  0.22884E+01  0.13177E+02      982.00
  0.68607E-01  0.58040E+02    0.37500E-01  0.37500E-01 -0.75000E-01  0.00000E+00  0.00000E+00  0.00000E+00    0.17633E+02  0.17600E+02 -0.35234E+02 -0.26158E+01  0.23113E+01  0.13402E+02      982.00
  0.91372E-01  0.58309E+02    0.50000E-01  0.50000E-01 -0.10000E+00  0.00000E+00  0.00000E+00  0.00000E+00    0.17705E+02  0.17599E+02 -0.35304E+02 -0.25895E+01  0.23169E+01  0.13655E+02      982.00
  0.11408E+00  0.58657E+02    0.62500E-01  0.62500E-01 -0.12500E+00  0.00000E+00  0.00000E+00  0.00000E+00    0.17784E+02  0.17622E+02 -0.35406E+02 -0.25471E+01  0.23028E+01  0.13961E+02      982.00
  0.13671E+00  0.59011E+02    0.75000E-01  0.75000E-01 -0.15000E+00  0.00000E+00  0.00000E+00  0.00000E+00    0.17848E+02  0.17669E+02 -0.35517E+02 -0.25152E+01  0.22766E+01  0.14254E+02      982.00
  0.15928E+00  0.59396E+02    0.87500E-01  0.87500E-01 -0.17500E+00  0.00000E+00  0.00000E+00  0.00000E+00    0.17910E+02  0.17731E+02 -0.35641E+02 -0.24703E+01  0.22324E+01  0.14564E+02      982.00
  0.18178E+00  0.59753E+02    0.10000E+00  0.10000E+00 -0.20000E+00  0.00000E+00  0.00000E+00  0.00000E+00    0.17967E+02  0.17802E+02 -0.35769E+02 -0.24455E+01  0.21997E+01  0.14824E+02      982.00
  0.20423E+00  0.60143E+02    0.11250E+00  0.11250E+00 -0.22500E+00  0.00000E+00  0.00000E+00  0.00000E+00    0.18028E+02  0.17880E+02 -0.35908E+02 -0.24049E+01  0.21522E+01  0.15109E+02      982.00
  0.22662E+00  0.60528E+02    0.12500E+00  0.12500E+00 -0.25000E+00  0.00000E+00  0.00000E+00  0.00000E+00    0.18089E+02  0.17960E+02 -0.36048E+02 -0.23632E+01  0.21029E+01  0.15381E+02      982.00
  0.24896E+00  0.60902E+02    0.13750E+00  0.13750E+00 -0.27500E+00  0.00000E+00  0.00000E+00  0.00000E+00    0.18149E+02  0.18041E+02 -0.36189E+02 -0.23221E+01  0.20535E+01  0.15637E+02      982.00
  0.27124E+00  0.61262E+02    0.15000E+00  0.15000E+00 -0.30000E+00  0.00000E+00  0.00000E+00  0.00000E+00    0.18208E+02  0.18120E+02 -0.36328E+02 -0.22829E+01  0.20059E+01  0.15875E+02      982.00
  0.29348E+00  0.61605E+02    0.16250E+00  0.16250E+00 -0.32500E+00  0.00000E+00  0.00000E+00  0.00000E+00    0.18267E+02  0.18196E+02 -0.36463E+02 -0.22464E+01  0.19612E+01  0.16093E+02      982.00
  0.31567E+00  0.61927E+02    0.17500E+00  0.17500E+00 -0.35000E+00  0.00000E+00  0.00000E+00  0.00000E+00    0.18325E+02  0.18268E+02 -0.36593E+02 -0.22134E+01  0.19201E+01  0.16293E+02      982.00
  0.33783E+00  0.62241E+02    0.18750E+00  0.18750E+00 -0.37500E+00  0.00000E+00  0.00000E+00  0.00000E+00    0.18380E+02  0.18338E+02 -0.36719E+02 -0.21735E+01  0.18697E+01  0.16490E+02      982.00
  0.35995E+00  0.62498E+02    0.20000E+00  0.20000E+00 -0.40000E+00  0.00000E+00  0.00000E+00  0.00000E+00    0.18438E+02  0.18394E+02 -0.36832E+02 -0.21650E+01  0.18589E+01  0.16626E+02      982.00
  0.38205E+00  0.62742E+02    0.21250E+00  0.21250E+00 -0.42500E+00  0.00000E+00  0.00000E+00  0.00000E+00    0.18487E+02  0.18448E+02 -0.36935E+02 -0.21384E+01  0.18238E+01  0.16767E+02      982.00
  0.40413E+00  0.62986E+02    0.22500E+00  0.22500E+00 -0.45000E+00  0.00000E+00  0.00000E+00  0.00000E+00    0.18538E+02  0.18501E+02 -0.37038E+02 -0.21133E+01  0.17894E+01  0.16908E+02      982.00
  0.42618E+00  0.63212E+02    0.23750E+00  0.23750E+00 -0.47500E+00  0.00000E+00  0.00000E+00  0.00000E+00    0.18591E+02  0.18548E+02 -0.37139E+02 -0.20981E+01  0.17676E+01  0.17027E+02      982.00
  0.44821E+00  0.63440E+02    0.25000E+00  0.25000E+00 -0.50000E+00  0.00000E+00  0.00000E+00  0.00000E+00    0.18644E+02  0.18593E+02 -0.37237E+02 -0.20762E+01  0.17368E+01  0.17154E+02      982.00
  0.47022E+00  0.63628E+02    0.26250E+00  0.26250E+00 -0.52500E+00  0.00000E+00  0.00000E+00  0.00000E+00    0.18694E+02  0.18630E+02 -0.37324E+02 -0.20664E+01  0.17211E+01  0.17248E+02      982.00
  0.49222E+00  0.63800E+02    0.27500E+00  0.27500E+00 -0.55000E+00  0.00000E+00  0.00000E+00  0.00000E+00    0.18743E+02  0.18661E+02 -0.37404E+02 -0.20588E+01  0.17085E+01  0.17331E+02      982.00
  0.51421E+00  0.63958E+02    0.28750E+00  0.28750E+00 -0.57500E+00  0.00000E+00  0.00000E+00  0.00000E+00    0.18790E+02  0.18689E+02 -0.37478E+02 -0.20528E+01  0.16979E+01  0.17406E+02      982.00
  0.53618E+00  0.64104E+02    0.30000E+00  0.30000E+00 -0.60000E+00  0.00000E+00  0.00000E+00  0.00000E+00    0.18835E+02  0.18713E+02 -0.37548E+02 -0.20481E+01  0.16888E+01  0.17474E+02      982.00
  0.55814E+00  0.64238E+02    0.31250E+00  0.31250E+00 -0.62500E+00  0.00000E+00  0.00000E+00  0.00000E+00    0.18879E+02  0.18733E+02 -0.37612E+02 -0.20446E+01  0.16812E+01  0.17535E+02      982.00
  0.58010E+00  0.64359E+02    0.32500E+00  0.32500E+00 -0.65000E+00  0.00000E+00  0.00000E+00  0.00000E+00    0.18922E+02  0.18744E+02 -0.37666E+02 -0.20390E+01  0.16693E+01  0.17597E+02      982.00
  0.60205E+00  0.64475E+02    0.33750E+00  0.33750E+00 -0.67500E+00  0.00000E+00  0.00000E+00  0.00000E+00    0.18965E+02  0.18759E+02 -0.37724E+02 -0.20377E+01  0.16638E+01  0.17646E+02      982.00
  0.62399E+00  0.64578E+02    0.35000E+00  0.35000E+00 -0.70000E+00  0.00000E+00  0.00000E+00  0.00000E+00    0.19005E+02  0.18770E+02 -0.37775E+02 -0.20371E+01  0.16597E+01  0.17691E+02      982.00
  0.64593E+00  0.64675E+02    0.36250E+00  0.36250E+00 -0.72500E+00  0.00000E+00  0.00000E+00  0.00000E+00    0.19044E+02  0.18779E+02 -0.37823E+02 -0.20372E+01  0.16563E+01  0.17732E+02      982.00
  0.66786E+00  0.64764E+02    0.37500E+00  0.37500E+00 -0.75000E+00  0.00000E+00  0.00000E+00  0.00000E+00    0.19082E+02  0.18787E+02 -0.37868E+02 -0.20378E+01  0.16536E+01  0.17769E+02      982.00
  0.68978E+00  0.64848E+02    0.38750E+00  0.38750E+00 -0.77500E+00  0.00000E+00  0.00000E+00  0.00000E+00    0.19118E+02  0.18792E+02 -0.37910E+02 -0.20388E+01  0.16513E+01  0.17804E+02      982.00
  0.71171E+00  0.64925E+02    0.40000E+00  0.40000E+00 -0.80000E+00  0.00000E+00  0.00000E+00  0.00000E+00    0.19154E+02  0.18795E+02 -0.37949E+02 -0.20402E+01  0.16495E+01  0.17835E+02      982.00
  0.73362E+00  0.65038E+02    0.41250E+00  0.41250E+00 -0.82500E+00  0.00000E+00  0.00000E+00  0.00000E+00    0.19210E+02  0.18794E+02 -0.38003E+02 -0.20398E+01  0.16433E+01  0.17886E+02      982.00
  0.75554E+00  0.65064E+02    0.42500E+00  0.42500E+00 -0.85000E+00  0.00000E+00  0.00000E+00  0.00000E+00    0.19223E+02  0.18796E+02 -0.38019E+02 -0.20431E+01  0.16457E+01  0.17891E+02      982.00
  0.77745E+00  0.65162E+02    0.43750E+00  0.43750E+00 -0.87500E+00  0.00000E+00  0.00000E+00  0.00000E+00    0.19275E+02  0.18791E+02 -0.38066E+02 -0.20448E+01  0.16420E+01  0.17935E+02      982.00
  0.79936E+00  0.65217E+02    0.45000E+00  0.45000E+00 -0.90000E+00  0.00000E+00  0.00000E+00  0.00000E+00    0.19310E+02  0.18784E+02 -0.38094E+02 -0.20469E+01  0.16404E+01  0.17957E+02      982.00
  0.82126E+00  0.65269E+02    0.46250E+00  0.46250E+00 -0.92500E+00  0.00000E+00  0.00000E+00  0.00000E+00    0.19341E+02  0.18780E+02 -0.38120E+02 -0.20497E+01  0.16401E+01  0.17977E+02      982.00
  0.84316E+00  0.65318E+02    0.47500E+00  0.47500E+00 -0.95000E+00  0.00000E+00  0.00000E+00  0.00000E+00    0.19371E+02  0.18774E+02 -0.38145E+02 -0.20529E+01  0.16402E+01  0.17996E+02      982.00
  0.86506E+00  0.65364E+02    0.48750E+00  0.48750E+00 -0.97500E+00  0.00000E+00  0.00000E+00  0.00000E+00    0.19401E+02  0.18768E+02 -0.38169E+02 -0.20562E+01  0.16405E+01  0.18014E+02      982.00
  0.88696E+00  0.65355E+02    0.50000E+00  0.50000E+00 -0.10000E+01  0.00000E+00  0.00000E+00  0.00000E+00    0.19383E+02  0.18783E+02 -0.38166E+02 -0.20565E+01  0.16446E+01  0.18007E+02      982.00
