          Evm          Svm            E11          E22          E33          E23          E13          E12         SDEV11       SDEV22       SDEV33       SDEV23       SDEV13       SDEV12      TEMP
  0.00000E+00  0.57343E+02    0.00000E+00  0.00000E+00  0.00000E+00  0.00000E+00  0.00000E+00  0.00000E+00    0.15825E+02  0.16855E+02 -0.32681E+02 -0.20138E+01  0.12796E+01  0.17003E+02      982.00
  0.21372E-01  0.57308E+02    0.12500E-01  0.12500E-01 -0.25000E-01  0.00000E+00  0.00000E+00  0.00000E+00    0.15912E+02  0.16815E+02 -0.32727E+02 -0.22705E+01  0.15575E+01  0.16843E+02      982.00
  0.42786E-01  0.57376E+02    0.25000E-01  0.25000E-01 -0.50000E-01  0.00000E+00  0.00000E+00  0.00000E+00    0.16003E+02  0.16814E+02 -0.32817E+02 -0.24531E+01  0.17552E+01  0.16744E+02      982.00
  0.64235E-01  0.57521E+02    0.37500E-01  0.37500E-01 -0.75000E-01  0.00000E+00  0.00000E+00  0.00000E+00    0.16098E+02  0.16844E+02 -0.32942E+02 -0.25822E+01  0.18887E+01  0.16693E+02      982.00
  0.85711E-01  0.57744E+02    0.50000E-01  0.50000E-01 -0.10000E+00  0.00000E+00  0.00000E+00  0.00000E+00    0.16191E+02  0.16903E+02 -0.33095E+02 -0.26670E+01  0.19672E+01  0.16700E+02      982.00
  0.10720E+00  0.58024E+02    0.62500E-01  0.62500E-01 -0.12500E+00  0.00000E+00  0.00000E+00  0.00000E+00    0.16291E+02  0.16981E+02 -0.33272E+02 -0.27252E+01  0.20161E+01  0.16744E+02      982.00
  0.12871E+00  0.58350E+02    0.75000E-01  0.75000E-01 -0.15000E+00  0.00000E+00  0.00000E+00  0.00000E+00    0.16392E+02  0.17073E+02 -0.33465E+02 -0.27602E+01  0.20381E+01  0.16826E+02      982.00
  0.15021E+00  0.58766E+02    0.87500E-01  0.87500E-01 -0.17500E+00  0.00000E+00  0.00000E+00  0.00000E+00    0.16499E+02  0.17178E+02 -0.33677E+02 -0.27892E+01  0.20463E+01  0.16984E+02      982.00
  0.17170E+00  0.59164E+02    0.10000E+00  0.10000E+00 -0.20000E+00  0.00000E+00  0.00000E+00  0.00000E+00    0.16609E+02  0.17295E+02 -0.33904E+02 -0.27886E+01  0.20401E+01  0.17106E+02      982.00
  0.19319E+00  0.59580E+02    0.11250E+00  0.11250E+00 -0.22500E+00  0.00000E+00  0.00000E+00  0.00000E+00    0.16723E+02  0.17420E+02 -0.34143E+02 -0.27951E+01  0.20451E+01  0.17229E+02      982.00
  0.21468E+00  0.60007E+02    0.12500E+00  0.12500E+00 -0.25000E+00  0.00000E+00  0.00000E+00  0.00000E+00    0.16833E+02  0.17540E+02 -0.34373E+02 -0.27899E+01  0.20351E+01  0.17381E+02      982.00
  0.23616E+00  0.60429E+02    0.13750E+00  0.13750E+00 -0.27500E+00  0.00000E+00  0.00000E+00  0.00000E+00    0.16946E+02  0.17661E+02 -0.34607E+02 -0.27852E+01  0.20302E+01  0.17521E+02      982.00
  0.25764E+00  0.60835E+02    0.15000E+00  0.15000E+00 -0.30000E+00  0.00000E+00  0.00000E+00  0.00000E+00    0.17058E+02  0.17777E+02 -0.34835E+02 -0.27781E+01  0.20259E+01  0.17651E+02      982.00
  0.27911E+00  0.61247E+02    0.16250E+00  0.16250E+00 -0.32500E+00  0.00000E+00  0.00000E+00  0.00000E+00    0.17173E+02  0.17891E+02 -0.35064E+02 -0.27636E+01  0.20181E+01  0.17789E+02      982.00
  0.30058E+00  0.61608E+02    0.17500E+00  0.17500E+00 -0.35000E+00  0.00000E+00  0.00000E+00  0.00000E+00    0.17281E+02  0.17995E+02 -0.35276E+02 -0.27506E+01  0.20137E+01  0.17892E+02      982.00
  0.32205E+00  0.61945E+02    0.18750E+00  0.18750E+00 -0.37500E+00  0.00000E+00  0.00000E+00  0.00000E+00    0.17386E+02  0.18092E+02 -0.35479E+02 -0.27368E+01  0.20102E+01  0.17982E+02      982.00
  0.34353E+00  0.62257E+02    0.20000E+00  0.20000E+00 -0.40000E+00  0.00000E+00  0.00000E+00  0.00000E+00    0.17489E+02  0.18182E+02 -0.35671E+02 -0.27216E+01  0.20064E+01  0.18059E+02      982.00
  0.36502E+00  0.62545E+02    0.21250E+00  0.21250E+00 -0.42500E+00  0.00000E+00  0.00000E+00  0.00000E+00    0.17587E+02  0.18265E+02 -0.35852E+02 -0.27050E+01  0.20021E+01  0.18124E+02      982.00
  0.38651E+00  0.62811E+02    0.22500E+00  0.22500E+00 -0.45000E+00  0.00000E+00  0.00000E+00  0.00000E+00    0.17683E+02  0.18341E+02 -0.36023E+02 -0.26872E+01  0.19971E+01  0.18179E+02      982.00
  0.40802E+00  0.63060E+02    0.23750E+00  0.23750E+00 -0.47500E+00  0.00000E+00  0.00000E+00  0.00000E+00    0.17774E+02  0.18412E+02 -0.36186E+02 -0.26687E+01  0.19909E+01  0.18228E+02      982.00
  0.42954E+00  0.63284E+02    0.25000E+00  0.25000E+00 -0.50000E+00  0.00000E+00  0.00000E+00  0.00000E+00    0.17862E+02  0.18475E+02 -0.36337E+02 -0.26488E+01  0.19842E+01  0.18265E+02      982.00
  0.45107E+00  0.63489E+02    0.26250E+00  0.26250E+00 -0.52500E+00  0.00000E+00  0.00000E+00  0.00000E+00    0.17946E+02  0.18532E+02 -0.36478E+02 -0.26284E+01  0.19770E+01  0.18295E+02      982.00
  0.47262E+00  0.63677E+02    0.27500E+00  0.27500E+00 -0.55000E+00  0.00000E+00  0.00000E+00  0.00000E+00    0.18027E+02  0.18583E+02 -0.36610E+02 -0.26074E+01  0.19690E+01  0.18319E+02      982.00
  0.49418E+00  0.63849E+02    0.28750E+00  0.28750E+00 -0.57500E+00  0.00000E+00  0.00000E+00  0.00000E+00    0.18105E+02  0.18629E+02 -0.36734E+02 -0.25861E+01  0.19605E+01  0.18338E+02      982.00
  0.51575E+00  0.64008E+02    0.30000E+00  0.30000E+00 -0.60000E+00  0.00000E+00  0.00000E+00  0.00000E+00    0.18180E+02  0.18670E+02 -0.36850E+02 -0.25648E+01  0.19514E+01  0.18352E+02      982.00
  0.53734E+00  0.64153E+02    0.31250E+00  0.31250E+00 -0.62500E+00  0.00000E+00  0.00000E+00  0.00000E+00    0.18251E+02  0.18707E+02 -0.36958E+02 -0.25434E+01  0.19419E+01  0.18362E+02      982.00
  0.55894E+00  0.64287E+02    0.32500E+00  0.32500E+00 -0.65000E+00  0.00000E+00  0.00000E+00  0.00000E+00    0.18319E+02  0.18739E+02 -0.37059E+02 -0.25222E+01  0.19321E+01  0.18370E+02      982.00
  0.58056E+00  0.64396E+02    0.33750E+00  0.33750E+00 -0.67500E+00  0.00000E+00  0.00000E+00  0.00000E+00    0.18377E+02  0.18764E+02 -0.37142E+02 -0.25060E+01  0.19251E+01  0.18375E+02      982.00
  0.60219E+00  0.64512E+02    0.35000E+00  0.35000E+00 -0.70000E+00  0.00000E+00  0.00000E+00  0.00000E+00    0.18441E+02  0.18790E+02 -0.37231E+02 -0.24859E+01  0.19150E+01  0.18378E+02      982.00
  0.62383E+00  0.64618E+02    0.36250E+00  0.36250E+00 -0.72500E+00  0.00000E+00  0.00000E+00  0.00000E+00    0.18502E+02  0.18813E+02 -0.37314E+02 -0.24659E+01  0.19047E+01  0.18380E+02      982.00
  0.64549E+00  0.64715E+02    0.37500E+00  0.37500E+00 -0.75000E+00  0.00000E+00  0.00000E+00  0.00000E+00    0.18560E+02  0.18832E+02 -0.37392E+02 -0.24463E+01  0.18943E+01  0.18380E+02      982.00
  0.66715E+00  0.64806E+02    0.38750E+00  0.38750E+00 -0.77500E+00  0.00000E+00  0.00000E+00  0.00000E+00    0.18617E+02  0.18848E+02 -0.37465E+02 -0.24273E+01  0.18840E+01  0.18379E+02      982.00
  0.68883E+00  0.64890E+02    0.40000E+00  0.40000E+00 -0.80000E+00  0.00000E+00  0.00000E+00  0.00000E+00    0.18671E+02  0.18862E+02 -0.37532E+02 -0.24090E+01  0.18739E+01  0.18377E+02      982.00
  0.71052E+00  0.64967E+02    0.41250E+00  0.41250E+00 -0.82500E+00  0.00000E+00  0.00000E+00  0.00000E+00    0.18723E+02  0.18873E+02 -0.37596E+02 -0.23915E+01  0.18639E+01  0.18375E+02      982.00
  0.73222E+00  0.65039E+02    0.42500E+00  0.42500E+00 -0.85000E+00  0.00000E+00  0.00000E+00  0.00000E+00    0.18773E+02  0.18882E+02 -0.37655E+02 -0.23747E+01  0.18541E+01  0.18372E+02      982.00
  0.75394E+00  0.65106E+02    0.43750E+00  0.43750E+00 -0.87500E+00  0.00000E+00  0.00000E+00  0.00000E+00    0.18822E+02  0.18888E+02 -0.37711E+02 -0.23587E+01  0.18446E+01  0.18369E+02      982.00
  0.77566E+00  0.65169E+02    0.45000E+00  0.45000E+00 -0.90000E+00  0.00000E+00  0.00000E+00  0.00000E+00    0.18869E+02  0.18893E+02 -0.37762E+02 -0.23434E+01  0.18353E+01  0.18366E+02      982.00
  0.79739E+00  0.65227E+02    0.46250E+00  0.46250E+00 -0.92500E+00  0.00000E+00  0.00000E+00  0.00000E+00    0.18914E+02  0.18897E+02 -0.37811E+02 -0.23290E+01  0.18264E+01  0.18362E+02      982.00
  0.81912E+00  0.65281E+02    0.47500E+00  0.47500E+00 -0.95000E+00  0.00000E+00  0.00000E+00  0.00000E+00    0.18958E+02  0.18898E+02 -0.37856E+02 -0.23154E+01  0.18178E+01  0.18359E+02      982.00
  0.84087E+00  0.65332E+02    0.48750E+00  0.48750E+00 -0.97500E+00  0.00000E+00  0.00000E+00  0.00000E+00    0.19001E+02  0.18898E+02 -0.37899E+02 -0.23025E+01  0.18095E+01  0.18356E+02      982.00
  0.86262E+00  0.65338E+02    0.50000E+00  0.50000E+00 -0.10000E+01  0.00000E+00  0.00000E+00  0.00000E+00    0.19024E+02  0.18886E+02 -0.37910E+02 -0.22820E+01  0.17981E+01  0.18348E+02      982.00
