          Evm          Svm            E11          E22          E33          E23          E13          E12         SDEV11       SDEV22       SDEV33       SDEV23       SDEV13       SDEV12      TEMP
  0.00000E+00  0.62351E+02    0.00000E+00  0.00000E+00  0.00000E+00  0.00000E+00  0.00000E+00  0.00000E+00    0.20097E+02  0.18343E+02 -0.38440E+02 -0.18283E+01  0.11180E+01  0.13502E+02      982.00
  0.23119E-01  0.62334E+02    0.12500E-01  0.12500E-01 -0.25000E-01  0.00000E+00  0.00000E+00  0.00000E+00    0.20199E+02  0.18311E+02 -0.38509E+02 -0.19439E+01  0.13950E+01  0.13280E+02      982.00
  0.46286E-01  0.62335E+02    0.25000E-01  0.25000E-01 -0.50000E-01  0.00000E+00  0.00000E+00  0.00000E+00    0.20307E+02  0.18276E+02 -0.38583E+02 -0.20263E+01  0.16241E+01  0.13075E+02      982.00
  0.69497E-01  0.62378E+02    0.37500E-01  0.37500E-01 -0.75000E-01  0.00000E+00  0.00000E+00  0.00000E+00    0.20445E+02  0.18233E+02 -0.38678E+02 -0.20998E+01  0.18323E+01  0.12886E+02      982.00
  0.92749E-01  0.62459E+02    0.50000E-01  0.50000E-01 -0.10000E+00  0.00000E+00  0.00000E+00  0.00000E+00    0.20595E+02  0.18190E+02 -0.38786E+02 -0.21540E+01  0.19958E+01  0.12730E+02      982.00
  0.11604E+00  0.62580E+02    0.62500E-01  0.62500E-01 -0.12500E+00  0.00000E+00  0.00000E+00  0.00000E+00    0.20756E+02  0.18154E+02 -0.38910E+02 -0.21962E+01  0.21225E+01  0.12606E+02      982.00
  0.13935E+00  0.62737E+02    0.75000E-01  0.75000E-01 -0.15000E+00  0.00000E+00  0.00000E+00  0.00000E+00    0.20925E+02  0.18124E+02 -0.39049E+02 -0.22333E+01  0.22202E+01  0.12509E+02      982.00
  0.16269E+00  0.62929E+02    0.87500E-01  0.87500E-01 -0.17500E+00  0.00000E+00  0.00000E+00  0.00000E+00    0.21090E+02  0.18111E+02 -0.39202E+02 -0.22629E+01  0.22899E+01  0.12445E+02      982.00
  0.18605E+00  0.63142E+02    0.10000E+00  0.10000E+00 -0.20000E+00  0.00000E+00  0.00000E+00  0.00000E+00    0.21258E+02  0.18104E+02 -0.39362E+02 -0.22927E+01  0.23415E+01  0.12399E+02      982.00
  0.20943E+00  0.63388E+02    0.11250E+00  0.11250E+00 -0.22500E+00  0.00000E+00  0.00000E+00  0.00000E+00    0.21418E+02  0.18119E+02 -0.39537E+02 -0.23202E+01  0.23788E+01  0.12378E+02      982.00
  0.23282E+00  0.63653E+02    0.12500E+00  0.12500E+00 -0.25000E+00  0.00000E+00  0.00000E+00  0.00000E+00    0.21572E+02  0.18148E+02 -0.39720E+02 -0.23486E+01  0.24073E+01  0.12372E+02      982.00
  0.25622E+00  0.63920E+02    0.13750E+00  0.13750E+00 -0.27500E+00  0.00000E+00  0.00000E+00  0.00000E+00    0.21725E+02  0.18177E+02 -0.39902E+02 -0.23802E+01  0.24285E+01  0.12374E+02      982.00
  0.27963E+00  0.64209E+02    0.15000E+00  0.15000E+00 -0.30000E+00  0.00000E+00  0.00000E+00  0.00000E+00    0.21868E+02  0.18228E+02 -0.40095E+02 -0.24116E+01  0.24463E+01  0.12386E+02      982.00
  0.30305E+00  0.64502E+02    0.16250E+00  0.16250E+00 -0.32500E+00  0.00000E+00  0.00000E+00  0.00000E+00    0.22004E+02  0.18287E+02 -0.40291E+02 -0.24438E+01  0.24613E+01  0.12403E+02      982.00
  0.32647E+00  0.64790E+02    0.17500E+00  0.17500E+00 -0.35000E+00  0.00000E+00  0.00000E+00  0.00000E+00    0.22137E+02  0.18345E+02 -0.40482E+02 -0.24802E+01  0.24738E+01  0.12421E+02      982.00
  0.34990E+00  0.65091E+02    0.18750E+00  0.18750E+00 -0.37500E+00  0.00000E+00  0.00000E+00  0.00000E+00    0.22270E+02  0.18412E+02 -0.40681E+02 -0.25198E+01  0.24857E+01  0.12441E+02      982.00
  0.37334E+00  0.65374E+02    0.20000E+00  0.20000E+00 -0.40000E+00  0.00000E+00  0.00000E+00  0.00000E+00    0.22383E+02  0.18488E+02 -0.40871E+02 -0.25523E+01  0.24941E+01  0.12458E+02      982.00
  0.39678E+00  0.65650E+02    0.21250E+00  0.21250E+00 -0.42500E+00  0.00000E+00  0.00000E+00  0.00000E+00    0.22488E+02  0.18569E+02 -0.41057E+02 -0.25831E+01  0.25006E+01  0.12474E+02      982.00
  0.42024E+00  0.65939E+02    0.22500E+00  0.22500E+00 -0.45000E+00  0.00000E+00  0.00000E+00  0.00000E+00    0.22599E+02  0.18653E+02 -0.41252E+02 -0.26211E+01  0.25067E+01  0.12489E+02      982.00
  0.44370E+00  0.66191E+02    0.23750E+00  0.23750E+00 -0.47500E+00  0.00000E+00  0.00000E+00  0.00000E+00    0.22688E+02  0.18736E+02 -0.41424E+02 -0.26485E+01  0.25078E+01  0.12499E+02      982.00
  0.46716E+00  0.66430E+02    0.25000E+00  0.25000E+00 -0.50000E+00  0.00000E+00  0.00000E+00  0.00000E+00    0.22768E+02  0.18820E+02 -0.41589E+02 -0.26727E+01  0.25066E+01  0.12508E+02      982.00
  0.49064E+00  0.66658E+02    0.26250E+00  0.26250E+00 -0.52500E+00  0.00000E+00  0.00000E+00  0.00000E+00    0.22842E+02  0.18904E+02 -0.41746E+02 -0.26942E+01  0.25029E+01  0.12516E+02      982.00
  0.51413E+00  0.66893E+02    0.27500E+00  0.27500E+00 -0.55000E+00  0.00000E+00  0.00000E+00  0.00000E+00    0.22918E+02  0.18992E+02 -0.41910E+02 -0.27225E+01  0.24977E+01  0.12520E+02      982.00
  0.53762E+00  0.67093E+02    0.28750E+00  0.28750E+00 -0.57500E+00  0.00000E+00  0.00000E+00  0.00000E+00    0.22978E+02  0.19072E+02 -0.42050E+02 -0.27398E+01  0.24883E+01  0.12523E+02      982.00
  0.56112E+00  0.67281E+02    0.30000E+00  0.30000E+00 -0.60000E+00  0.00000E+00  0.00000E+00  0.00000E+00    0.23031E+02  0.19151E+02 -0.42183E+02 -0.27529E+01  0.24769E+01  0.12526E+02      982.00
  0.58463E+00  0.67465E+02    0.31250E+00  0.31250E+00 -0.62500E+00  0.00000E+00  0.00000E+00  0.00000E+00    0.23082E+02  0.19231E+02 -0.42313E+02 -0.27652E+01  0.24656E+01  0.12529E+02      982.00
  0.60815E+00  0.67629E+02    0.32500E+00  0.32500E+00 -0.65000E+00  0.00000E+00  0.00000E+00  0.00000E+00    0.23125E+02  0.19305E+02 -0.42430E+02 -0.27722E+01  0.24504E+01  0.12530E+02      982.00
  0.63168E+00  0.67783E+02    0.33750E+00  0.33750E+00 -0.67500E+00  0.00000E+00  0.00000E+00  0.00000E+00    0.23164E+02  0.19377E+02 -0.42541E+02 -0.27783E+01  0.24341E+01  0.12530E+02      982.00
  0.65522E+00  0.67927E+02    0.35000E+00  0.35000E+00 -0.70000E+00  0.00000E+00  0.00000E+00  0.00000E+00    0.23199E+02  0.19446E+02 -0.42645E+02 -0.27827E+01  0.24167E+01  0.12530E+02      982.00
  0.67876E+00  0.68061E+02    0.36250E+00  0.36250E+00 -0.72500E+00  0.00000E+00  0.00000E+00  0.00000E+00    0.23230E+02  0.19513E+02 -0.42743E+02 -0.27856E+01  0.23984E+01  0.12528E+02      982.00
  0.70231E+00  0.68187E+02    0.37500E+00  0.37500E+00 -0.75000E+00  0.00000E+00  0.00000E+00  0.00000E+00    0.23258E+02  0.19576E+02 -0.42834E+02 -0.27872E+01  0.23796E+01  0.12527E+02      982.00
  0.72587E+00  0.68305E+02    0.38750E+00  0.38750E+00 -0.77500E+00  0.00000E+00  0.00000E+00  0.00000E+00    0.23283E+02  0.19637E+02 -0.42921E+02 -0.27876E+01  0.23603E+01  0.12525E+02      982.00
  0.74943E+00  0.68414E+02    0.40000E+00  0.40000E+00 -0.80000E+00  0.00000E+00  0.00000E+00  0.00000E+00    0.23306E+02  0.19696E+02 -0.43002E+02 -0.27869E+01  0.23409E+01  0.12522E+02      982.00
  0.77300E+00  0.68516E+02    0.41250E+00  0.41250E+00 -0.82500E+00  0.00000E+00  0.00000E+00  0.00000E+00    0.23326E+02  0.19752E+02 -0.43077E+02 -0.27853E+01  0.23214E+01  0.12520E+02      982.00
  0.79658E+00  0.68612E+02    0.42500E+00  0.42500E+00 -0.85000E+00  0.00000E+00  0.00000E+00  0.00000E+00    0.23344E+02  0.19805E+02 -0.43149E+02 -0.27829E+01  0.23020E+01  0.12517E+02      982.00
  0.82016E+00  0.68701E+02    0.43750E+00  0.43750E+00 -0.87500E+00  0.00000E+00  0.00000E+00  0.00000E+00    0.23359E+02  0.19856E+02 -0.43215E+02 -0.27800E+01  0.22828E+01  0.12514E+02      982.00
  0.84375E+00  0.68784E+02    0.45000E+00  0.45000E+00 -0.90000E+00  0.00000E+00  0.00000E+00  0.00000E+00    0.23373E+02  0.19905E+02 -0.43278E+02 -0.27765E+01  0.22639E+01  0.12511E+02      982.00
  0.86734E+00  0.68853E+02    0.46250E+00  0.46250E+00 -0.92500E+00  0.00000E+00  0.00000E+00  0.00000E+00    0.23388E+02  0.19941E+02 -0.43329E+02 -0.27755E+01  0.22565E+01  0.12508E+02      982.00
  0.89094E+00  0.68935E+02    0.47500E+00  0.47500E+00 -0.95000E+00  0.00000E+00  0.00000E+00  0.00000E+00    0.23396E+02  0.19995E+02 -0.43391E+02 -0.27686E+01  0.22301E+01  0.12504E+02      982.00
  0.91455E+00  0.68996E+02    0.48750E+00  0.48750E+00 -0.97500E+00  0.00000E+00  0.00000E+00  0.00000E+00    0.23408E+02  0.20029E+02 -0.43437E+02 -0.27674E+01  0.22215E+01  0.12502E+02      982.00
  0.93815E+00  0.69061E+02    0.50000E+00  0.50000E+00 -0.10000E+01  0.00000E+00  0.00000E+00  0.00000E+00    0.23416E+02  0.20070E+02 -0.43487E+02 -0.27632E+01  0.22061E+01  0.12498E+02      982.00
