          Evm          Svm            E11          E22          E33          E23          E13          E12         SDEV11       SDEV22       SDEV33       SDEV23       SDEV13       SDEV12      TEMP
  0.00000E+00  0.61229E+02    0.00000E+00  0.00000E+00  0.00000E+00  0.00000E+00  0.00000E+00  0.00000E+00    0.26719E+02  0.12212E+02 -0.38931E+02 -0.24286E+00 -0.12322E+01 -0.76657E+01      982.00
  0.23843E-01  0.61369E+02    0.12500E-01  0.12500E-01 -0.25000E-01  0.00000E+00  0.00000E+00  0.00000E+00    0.26735E+02  0.12233E+02 -0.38968E+02 -0.46334E+00 -0.11789E+01 -0.78934E+01      982.00
  0.47655E-01  0.61617E+02    0.25000E-01  0.25000E-01 -0.50000E-01  0.00000E+00  0.00000E+00  0.00000E+00    0.26778E+02  0.12296E+02 -0.39074E+02 -0.63280E+00 -0.11631E+01 -0.81417E+01      982.00
  0.71436E-01  0.61983E+02    0.37500E-01  0.37500E-01 -0.75000E-01  0.00000E+00  0.00000E+00  0.00000E+00    0.26835E+02  0.12419E+02 -0.39254E+02 -0.80869E+00 -0.12116E+01 -0.84193E+01      982.00
  0.95185E-01  0.62476E+02    0.50000E-01  0.50000E-01 -0.10000E+00  0.00000E+00  0.00000E+00  0.00000E+00    0.26915E+02  0.12601E+02 -0.39517E+02 -0.98113E+00 -0.13328E+01 -0.87156E+01      982.00
  0.11890E+00  0.63078E+02    0.62500E-01  0.62500E-01 -0.12500E+00  0.00000E+00  0.00000E+00  0.00000E+00    0.27008E+02  0.12849E+02 -0.39857E+02 -0.11677E+01 -0.15163E+01 -0.90022E+01      982.00
  0.14260E+00  0.63705E+02    0.75000E-01  0.75000E-01 -0.15000E+00  0.00000E+00  0.00000E+00  0.00000E+00    0.27073E+02  0.13163E+02 -0.40236E+02 -0.13860E+01 -0.17266E+01 -0.92355E+01      982.00
  0.16628E+00  0.64198E+02    0.87500E-01  0.87500E-01 -0.17500E+00  0.00000E+00  0.00000E+00  0.00000E+00    0.27053E+02  0.13512E+02 -0.40564E+02 -0.16199E+01 -0.19420E+01 -0.93523E+01      982.00
  0.18998E+00  0.64557E+02    0.10000E+00  0.10000E+00 -0.20000E+00  0.00000E+00  0.00000E+00  0.00000E+00    0.27014E+02  0.13810E+02 -0.40824E+02 -0.17505E+01 -0.22057E+01 -0.93661E+01      982.00
  0.21369E+00  0.64927E+02    0.11250E+00  0.11250E+00 -0.22500E+00  0.00000E+00  0.00000E+00  0.00000E+00    0.27056E+02  0.14030E+02 -0.41086E+02 -0.17508E+01 -0.25212E+01 -0.93448E+01      982.00
  0.23742E+00  0.65331E+02    0.12500E+00  0.12500E+00 -0.25000E+00  0.00000E+00  0.00000E+00  0.00000E+00    0.27188E+02  0.14169E+02 -0.41358E+02 -0.16478E+01 -0.28306E+01 -0.93148E+01      982.00
  0.26116E+00  0.65753E+02    0.13750E+00  0.13750E+00 -0.27500E+00  0.00000E+00  0.00000E+00  0.00000E+00    0.27357E+02  0.14281E+02 -0.41638E+02 -0.15333E+01 -0.30793E+01 -0.92887E+01      982.00
  0.28491E+00  0.66197E+02    0.15000E+00  0.15000E+00 -0.30000E+00  0.00000E+00  0.00000E+00  0.00000E+00    0.27563E+02  0.14362E+02 -0.41924E+02 -0.14207E+01 -0.32826E+01 -0.92790E+01      982.00
  0.30866E+00  0.66650E+02    0.16250E+00  0.16250E+00 -0.32500E+00  0.00000E+00  0.00000E+00  0.00000E+00    0.27775E+02  0.14439E+02 -0.42214E+02 -0.13332E+01 -0.34322E+01 -0.92840E+01      982.00
  0.33241E+00  0.67103E+02    0.17500E+00  0.17500E+00 -0.35000E+00  0.00000E+00  0.00000E+00  0.00000E+00    0.27992E+02  0.14513E+02 -0.42504E+02 -0.12702E+01 -0.35368E+01 -0.92984E+01      982.00
  0.35616E+00  0.67553E+02    0.18750E+00  0.18750E+00 -0.37500E+00  0.00000E+00  0.00000E+00  0.00000E+00    0.28216E+02  0.14574E+02 -0.42790E+02 -0.12214E+01 -0.36092E+01 -0.93208E+01      982.00
  0.37992E+00  0.67980E+02    0.20000E+00  0.20000E+00 -0.40000E+00  0.00000E+00  0.00000E+00  0.00000E+00    0.28421E+02  0.14645E+02 -0.43066E+02 -0.11983E+01 -0.36476E+01 -0.93388E+01      982.00
  0.40367E+00  0.68399E+02    0.21250E+00  0.21250E+00 -0.42500E+00  0.00000E+00  0.00000E+00  0.00000E+00    0.28631E+02  0.14706E+02 -0.43337E+02 -0.11822E+01 -0.36679E+01 -0.93567E+01      982.00
  0.42743E+00  0.68777E+02    0.22500E+00  0.22500E+00 -0.45000E+00  0.00000E+00  0.00000E+00  0.00000E+00    0.28812E+02  0.14777E+02 -0.43589E+02 -0.11827E+01 -0.36668E+01 -0.93642E+01      982.00
  0.45120E+00  0.69131E+02    0.23750E+00  0.23750E+00 -0.47500E+00  0.00000E+00  0.00000E+00  0.00000E+00    0.28987E+02  0.14838E+02 -0.43825E+02 -0.11881E+01 -0.36565E+01 -0.93670E+01      982.00
  0.47497E+00  0.69457E+02    0.25000E+00  0.25000E+00 -0.50000E+00  0.00000E+00  0.00000E+00  0.00000E+00    0.29140E+02  0.14908E+02 -0.44048E+02 -0.11991E+01 -0.36335E+01 -0.93598E+01      982.00
  0.49875E+00  0.69794E+02    0.26250E+00  0.26250E+00 -0.52500E+00  0.00000E+00  0.00000E+00  0.00000E+00    0.29310E+02  0.14973E+02 -0.44283E+02 -0.12135E+01 -0.35952E+01 -0.93393E+01      982.00
  0.52255E+00  0.70068E+02    0.27500E+00  0.27500E+00 -0.55000E+00  0.00000E+00  0.00000E+00  0.00000E+00    0.29438E+02  0.15039E+02 -0.44477E+02 -0.12290E+01 -0.35593E+01 -0.93175E+01      982.00
  0.54635E+00  0.70315E+02    0.28750E+00  0.28750E+00 -0.57500E+00  0.00000E+00  0.00000E+00  0.00000E+00    0.29552E+02  0.15105E+02 -0.44657E+02 -0.12436E+01 -0.35204E+01 -0.92894E+01      982.00
  0.57017E+00  0.70543E+02    0.30000E+00  0.30000E+00 -0.60000E+00  0.00000E+00  0.00000E+00  0.00000E+00    0.29656E+02  0.15169E+02 -0.44825E+02 -0.12570E+01 -0.34796E+01 -0.92567E+01      982.00
  0.59400E+00  0.70734E+02    0.31250E+00  0.31250E+00 -0.62500E+00  0.00000E+00  0.00000E+00  0.00000E+00    0.29733E+02  0.15232E+02 -0.44966E+02 -0.12626E+01 -0.34536E+01 -0.92334E+01      982.00
  0.61783E+00  0.70930E+02    0.32500E+00  0.32500E+00 -0.65000E+00  0.00000E+00  0.00000E+00  0.00000E+00    0.29822E+02  0.15292E+02 -0.45114E+02 -0.12723E+01 -0.34118E+01 -0.91944E+01      982.00
  0.64169E+00  0.71110E+02    0.33750E+00  0.33750E+00 -0.67500E+00  0.00000E+00  0.00000E+00  0.00000E+00    0.29903E+02  0.15350E+02 -0.45252E+02 -0.12808E+01 -0.33689E+01 -0.91517E+01      982.00
  0.66555E+00  0.71274E+02    0.35000E+00  0.35000E+00 -0.70000E+00  0.00000E+00  0.00000E+00  0.00000E+00    0.29975E+02  0.15406E+02 -0.45381E+02 -0.12878E+01 -0.33257E+01 -0.91063E+01      982.00
  0.68943E+00  0.71424E+02    0.36250E+00  0.36250E+00 -0.72500E+00  0.00000E+00  0.00000E+00  0.00000E+00    0.30041E+02  0.15460E+02 -0.45501E+02 -0.12935E+01 -0.32826E+01 -0.90587E+01      982.00
  0.71332E+00  0.71561E+02    0.37500E+00  0.37500E+00 -0.75000E+00  0.00000E+00  0.00000E+00  0.00000E+00    0.30101E+02  0.15513E+02 -0.45614E+02 -0.12980E+01 -0.32397E+01 -0.90095E+01      982.00
  0.73722E+00  0.71687E+02    0.38750E+00  0.38750E+00 -0.77500E+00  0.00000E+00  0.00000E+00  0.00000E+00    0.30155E+02  0.15564E+02 -0.45718E+02 -0.13013E+01 -0.31973E+01 -0.89591E+01      982.00
  0.76113E+00  0.71802E+02    0.40000E+00  0.40000E+00 -0.80000E+00  0.00000E+00  0.00000E+00  0.00000E+00    0.30203E+02  0.15612E+02 -0.45815E+02 -0.13042E+01 -0.31581E+01 -0.89085E+01      982.00
  0.78506E+00  0.71899E+02    0.41250E+00  0.41250E+00 -0.82500E+00  0.00000E+00  0.00000E+00  0.00000E+00    0.30247E+02  0.15652E+02 -0.45899E+02 -0.13107E+01 -0.31126E+01 -0.88564E+01      982.00
  0.80900E+00  0.71996E+02    0.42500E+00  0.42500E+00 -0.85000E+00  0.00000E+00  0.00000E+00  0.00000E+00    0.30286E+02  0.15698E+02 -0.45984E+02 -0.13111E+01 -0.30713E+01 -0.88049E+01      982.00
  0.83295E+00  0.72023E+02    0.43750E+00  0.43750E+00 -0.87500E+00  0.00000E+00  0.00000E+00  0.00000E+00    0.30289E+02  0.15734E+02 -0.46023E+02 -0.12981E+01 -0.30292E+01 -0.87585E+01      982.00
  0.85692E+00  0.72043E+02    0.45000E+00  0.45000E+00 -0.90000E+00  0.00000E+00  0.00000E+00  0.00000E+00    0.30291E+02  0.15768E+02 -0.46060E+02 -0.12903E+01 -0.29820E+01 -0.86995E+01      982.00
  0.88089E+00  0.72063E+02    0.46250E+00  0.46250E+00 -0.92500E+00  0.00000E+00  0.00000E+00  0.00000E+00    0.30293E+02  0.15803E+02 -0.46096E+02 -0.12827E+01 -0.29358E+01 -0.86416E+01      982.00
  0.90488E+00  0.72081E+02    0.47500E+00  0.47500E+00 -0.95000E+00  0.00000E+00  0.00000E+00  0.00000E+00    0.30293E+02  0.15836E+02 -0.46130E+02 -0.12753E+01 -0.28913E+01 -0.85858E+01      982.00
  0.92888E+00  0.72098E+02    0.48750E+00  0.48750E+00 -0.97500E+00  0.00000E+00  0.00000E+00  0.00000E+00    0.30293E+02  0.15869E+02 -0.46162E+02 -0.12679E+01 -0.28484E+01 -0.85322E+01      982.00
  0.95289E+00  0.72114E+02    0.50000E+00  0.50000E+00 -0.10000E+01  0.00000E+00  0.00000E+00  0.00000E+00    0.30292E+02  0.15900E+02 -0.46192E+02 -0.12606E+01 -0.28070E+01 -0.84808E+01      982.00
