          Evm          Svm            E11          E22          E33          E23          E13          E12         SDEV11       SDEV22       SDEV33       SDEV23       SDEV13       SDEV12      TEMP
  0.00000E+00  0.56469E+02    0.00000E+00  0.00000E+00  0.00000E+00  0.00000E+00  0.00000E+00  0.00000E+00    0.15148E+02  0.19490E+02 -0.34638E+02 -0.46377E+01  0.80166E+00  0.11672E+02      982.00
  0.23002E-01  0.56540E+02    0.12500E-01  0.12500E-01 -0.25000E-01  0.00000E+00  0.00000E+00  0.00000E+00    0.15652E+02  0.18994E+02 -0.34645E+02 -0.42433E+01  0.10390E+01  0.11979E+02      982.00
  0.45980E-01  0.56678E+02    0.25000E-01  0.25000E-01 -0.50000E-01  0.00000E+00  0.00000E+00  0.00000E+00    0.16087E+02  0.18584E+02 -0.34670E+02 -0.39235E+01  0.12194E+01  0.12281E+02      982.00
  0.68920E-01  0.56904E+02    0.37500E-01  0.37500E-01 -0.75000E-01  0.00000E+00  0.00000E+00  0.00000E+00    0.16455E+02  0.18273E+02 -0.34729E+02 -0.36512E+01  0.13595E+01  0.12601E+02      982.00
  0.91806E-01  0.57216E+02    0.50000E-01  0.50000E-01 -0.10000E+00  0.00000E+00  0.00000E+00  0.00000E+00    0.16752E+02  0.18070E+02 -0.34822E+02 -0.34194E+01  0.14626E+01  0.12944E+02      982.00
  0.11463E+00  0.57599E+02    0.62500E-01  0.62500E-01 -0.12500E+00  0.00000E+00  0.00000E+00  0.00000E+00    0.16992E+02  0.17954E+02 -0.34947E+02 -0.32170E+01  0.15373E+01  0.13304E+02      982.00
  0.13738E+00  0.58032E+02    0.75000E-01  0.75000E-01 -0.15000E+00  0.00000E+00  0.00000E+00  0.00000E+00    0.17187E+02  0.17908E+02 -0.35095E+02 -0.30386E+01  0.15889E+01  0.13672E+02      982.00
  0.16006E+00  0.58495E+02    0.87500E-01  0.87500E-01 -0.17500E+00  0.00000E+00  0.00000E+00  0.00000E+00    0.17347E+02  0.17913E+02 -0.35261E+02 -0.28804E+01  0.16220E+01  0.14037E+02      982.00
  0.18266E+00  0.58974E+02    0.10000E+00  0.10000E+00 -0.20000E+00  0.00000E+00  0.00000E+00  0.00000E+00    0.17479E+02  0.17958E+02 -0.35437E+02 -0.27466E+01  0.16346E+01  0.14394E+02      982.00
  0.20520E+00  0.59454E+02    0.11250E+00  0.11250E+00 -0.22500E+00  0.00000E+00  0.00000E+00  0.00000E+00    0.17597E+02  0.18021E+02 -0.35619E+02 -0.26245E+01  0.16419E+01  0.14734E+02      982.00
  0.22766E+00  0.59905E+02    0.12500E+00  0.12500E+00 -0.25000E+00  0.00000E+00  0.00000E+00  0.00000E+00    0.17698E+02  0.18094E+02 -0.35792E+02 -0.25206E+01  0.16410E+01  0.15042E+02      982.00
  0.25007E+00  0.60362E+02    0.13750E+00  0.13750E+00 -0.27500E+00  0.00000E+00  0.00000E+00  0.00000E+00    0.17796E+02  0.18176E+02 -0.35972E+02 -0.24371E+01  0.16317E+01  0.15344E+02      982.00
  0.27242E+00  0.60798E+02    0.15000E+00  0.15000E+00 -0.30000E+00  0.00000E+00  0.00000E+00  0.00000E+00    0.17889E+02  0.18256E+02 -0.36145E+02 -0.23666E+01  0.16208E+01  0.15621E+02      982.00
  0.29471E+00  0.61197E+02    0.16250E+00  0.16250E+00 -0.32500E+00  0.00000E+00  0.00000E+00  0.00000E+00    0.17977E+02  0.18329E+02 -0.36305E+02 -0.22974E+01  0.16111E+01  0.15872E+02      982.00
  0.31696E+00  0.61581E+02    0.17500E+00  0.17500E+00 -0.35000E+00  0.00000E+00  0.00000E+00  0.00000E+00    0.18065E+02  0.18397E+02 -0.36462E+02 -0.22494E+01  0.16003E+01  0.16102E+02      982.00
  0.33916E+00  0.61936E+02    0.18750E+00  0.18750E+00 -0.37500E+00  0.00000E+00  0.00000E+00  0.00000E+00    0.18153E+02  0.18455E+02 -0.36608E+02 -0.21982E+01  0.15895E+01  0.16316E+02      982.00
  0.36133E+00  0.62263E+02    0.20000E+00  0.20000E+00 -0.40000E+00  0.00000E+00  0.00000E+00  0.00000E+00    0.18239E+02  0.18506E+02 -0.36745E+02 -0.21671E+01  0.15812E+01  0.16503E+02      982.00
  0.38346E+00  0.62549E+02    0.21250E+00  0.21250E+00 -0.42500E+00  0.00000E+00  0.00000E+00  0.00000E+00    0.18320E+02  0.18550E+02 -0.36870E+02 -0.21537E+01  0.15745E+01  0.16657E+02      982.00
  0.40556E+00  0.62827E+02    0.22500E+00  0.22500E+00 -0.45000E+00  0.00000E+00  0.00000E+00  0.00000E+00    0.18403E+02  0.18586E+02 -0.36989E+02 -0.21320E+01  0.15682E+01  0.16810E+02      982.00
  0.42764E+00  0.63059E+02    0.23750E+00  0.23750E+00 -0.47500E+00  0.00000E+00  0.00000E+00  0.00000E+00    0.18481E+02  0.18607E+02 -0.37088E+02 -0.21078E+01  0.15625E+01  0.16939E+02      982.00
  0.44970E+00  0.63284E+02    0.25000E+00  0.25000E+00 -0.50000E+00  0.00000E+00  0.00000E+00  0.00000E+00    0.18560E+02  0.18627E+02 -0.37187E+02 -0.20937E+01  0.15584E+01  0.17058E+02      982.00
  0.47173E+00  0.63498E+02    0.26250E+00  0.26250E+00 -0.52500E+00  0.00000E+00  0.00000E+00  0.00000E+00    0.18640E+02  0.18642E+02 -0.37282E+02 -0.20838E+01  0.15554E+01  0.17169E+02      982.00
  0.49375E+00  0.63717E+02    0.27500E+00  0.27500E+00 -0.55000E+00  0.00000E+00  0.00000E+00  0.00000E+00    0.18736E+02  0.18639E+02 -0.37375E+02 -0.20633E+01  0.15491E+01  0.17291E+02      982.00
  0.51575E+00  0.63892E+02    0.28750E+00  0.28750E+00 -0.57500E+00  0.00000E+00  0.00000E+00  0.00000E+00    0.18814E+02  0.18641E+02 -0.37455E+02 -0.20589E+01  0.15483E+01  0.17376E+02      982.00
  0.53773E+00  0.64051E+02    0.30000E+00  0.30000E+00 -0.60000E+00  0.00000E+00  0.00000E+00  0.00000E+00    0.18888E+02  0.18641E+02 -0.37529E+02 -0.20569E+01  0.15475E+01  0.17452E+02      982.00
  0.55970E+00  0.64184E+02    0.31250E+00  0.31250E+00 -0.62500E+00  0.00000E+00  0.00000E+00  0.00000E+00    0.18939E+02  0.18657E+02 -0.37596E+02 -0.20663E+01  0.15496E+01  0.17505E+02      982.00
  0.58167E+00  0.64320E+02    0.32500E+00  0.32500E+00 -0.65000E+00  0.00000E+00  0.00000E+00  0.00000E+00    0.19008E+02  0.18651E+02 -0.37659E+02 -0.20652E+01  0.15482E+01  0.17568E+02      982.00
  0.60362E+00  0.64446E+02    0.33750E+00  0.33750E+00 -0.67500E+00  0.00000E+00  0.00000E+00  0.00000E+00    0.19076E+02  0.18642E+02 -0.37719E+02 -0.20651E+01  0.15479E+01  0.17627E+02      982.00
  0.62557E+00  0.64529E+02    0.35000E+00  0.35000E+00 -0.70000E+00  0.00000E+00  0.00000E+00  0.00000E+00    0.19138E+02  0.18619E+02 -0.37756E+02 -0.20629E+01  0.15466E+01  0.17667E+02      982.00
  0.64751E+00  0.64640E+02    0.36250E+00  0.36250E+00 -0.72500E+00  0.00000E+00  0.00000E+00  0.00000E+00    0.19203E+02  0.18607E+02 -0.37810E+02 -0.20648E+01  0.15472E+01  0.17717E+02      982.00
  0.66945E+00  0.64740E+02    0.37500E+00  0.37500E+00 -0.75000E+00  0.00000E+00  0.00000E+00  0.00000E+00    0.19266E+02  0.18592E+02 -0.37858E+02 -0.20671E+01  0.15476E+01  0.17760E+02      982.00
  0.69138E+00  0.64821E+02    0.38750E+00  0.38750E+00 -0.77500E+00  0.00000E+00  0.00000E+00  0.00000E+00    0.19333E+02  0.18563E+02 -0.37895E+02 -0.20683E+01  0.15475E+01  0.17797E+02      982.00
  0.71330E+00  0.64931E+02    0.40000E+00  0.40000E+00 -0.80000E+00  0.00000E+00  0.00000E+00  0.00000E+00    0.19417E+02  0.18531E+02 -0.37948E+02 -0.20710E+01  0.15480E+01  0.17845E+02      982.00
  0.73522E+00  0.65008E+02    0.41250E+00  0.41250E+00 -0.82500E+00  0.00000E+00  0.00000E+00  0.00000E+00    0.19475E+02  0.18511E+02 -0.37986E+02 -0.20744E+01  0.15493E+01  0.17876E+02      982.00
  0.75713E+00  0.65078E+02    0.42500E+00  0.42500E+00 -0.85000E+00  0.00000E+00  0.00000E+00  0.00000E+00    0.19529E+02  0.18492E+02 -0.38021E+02 -0.20782E+01  0.15506E+01  0.17903E+02      982.00
  0.77904E+00  0.65143E+02    0.43750E+00  0.43750E+00 -0.87500E+00  0.00000E+00  0.00000E+00  0.00000E+00    0.19581E+02  0.18473E+02 -0.38054E+02 -0.20822E+01  0.15519E+01  0.17928E+02      982.00
  0.80094E+00  0.65203E+02    0.45000E+00  0.45000E+00 -0.90000E+00  0.00000E+00  0.00000E+00  0.00000E+00    0.19631E+02  0.18453E+02 -0.38084E+02 -0.20863E+01  0.15532E+01  0.17951E+02      982.00
  0.82285E+00  0.65259E+02    0.46250E+00  0.46250E+00 -0.92500E+00  0.00000E+00  0.00000E+00  0.00000E+00    0.19680E+02  0.18433E+02 -0.38113E+02 -0.20903E+01  0.15546E+01  0.17972E+02      982.00
  0.84475E+00  0.65312E+02    0.47500E+00  0.47500E+00 -0.95000E+00  0.00000E+00  0.00000E+00  0.00000E+00    0.19727E+02  0.18412E+02 -0.38139E+02 -0.20944E+01  0.15560E+01  0.17991E+02      982.00
  0.86665E+00  0.65318E+02    0.48750E+00  0.48750E+00 -0.97500E+00  0.00000E+00  0.00000E+00  0.00000E+00    0.19711E+02  0.18432E+02 -0.38143E+02 -0.20908E+01  0.15596E+01  0.17994E+02      982.00
  0.88854E+00  0.65333E+02    0.50000E+00  0.50000E+00 -0.10000E+01  0.00000E+00  0.00000E+00  0.00000E+00    0.19807E+02  0.18342E+02 -0.38149E+02 -0.20827E+01  0.15509E+01  0.18000E+02      982.00
