          Evm          Svm            E11          E22          E33          E23          E13          E12         SDEV11       SDEV22       SDEV33       SDEV23       SDEV13       SDEV12      TEMP
  0.00000E+00  0.63457E+02    0.00000E+00  0.00000E+00  0.00000E+00  0.00000E+00  0.00000E+00  0.00000E+00    0.20924E+02  0.19605E+02 -0.40529E+02 -0.28225E+01  0.22361E+01  0.98446E+01      982.00
  0.23951E-01  0.63452E+02    0.12500E-01  0.12500E-01 -0.25000E-01  0.00000E+00  0.00000E+00  0.00000E+00    0.21151E+02  0.19390E+02 -0.40541E+02 -0.26480E+01  0.22571E+01  0.98244E+01      982.00
  0.47910E-01  0.63481E+02    0.25000E-01  0.25000E-01 -0.50000E-01  0.00000E+00  0.00000E+00  0.00000E+00    0.21317E+02  0.19248E+02 -0.40565E+02 -0.25034E+01  0.22698E+01  0.98304E+01      982.00
  0.71873E-01  0.63540E+02    0.37500E-01  0.37500E-01 -0.75000E-01  0.00000E+00  0.00000E+00  0.00000E+00    0.21457E+02  0.19145E+02 -0.40602E+02 -0.23878E+01  0.22680E+01  0.98614E+01      982.00
  0.95835E-01  0.63631E+02    0.50000E-01  0.50000E-01 -0.10000E+00  0.00000E+00  0.00000E+00  0.00000E+00    0.21589E+02  0.19062E+02 -0.40651E+02 -0.22967E+01  0.22549E+01  0.99138E+01      982.00
  0.11979E+00  0.63758E+02    0.62500E-01  0.62500E-01 -0.12500E+00  0.00000E+00  0.00000E+00  0.00000E+00    0.21707E+02  0.19012E+02 -0.40718E+02 -0.22275E+01  0.22375E+01  0.99886E+01      982.00
  0.14374E+00  0.63919E+02    0.75000E-01  0.75000E-01 -0.15000E+00  0.00000E+00  0.00000E+00  0.00000E+00    0.21817E+02  0.18984E+02 -0.40802E+02 -0.21763E+01  0.22180E+01  0.10081E+02      982.00
  0.16768E+00  0.64095E+02    0.87500E-01  0.87500E-01 -0.17500E+00  0.00000E+00  0.00000E+00  0.00000E+00    0.21925E+02  0.18966E+02 -0.40890E+02 -0.21381E+01  0.21932E+01  0.10189E+02      982.00
  0.19160E+00  0.64311E+02    0.10000E+00  0.10000E+00 -0.20000E+00  0.00000E+00  0.00000E+00  0.00000E+00    0.22027E+02  0.18975E+02 -0.41002E+02 -0.21153E+01  0.21754E+01  0.10306E+02      982.00
  0.21551E+00  0.64562E+02    0.11250E+00  0.11250E+00 -0.22500E+00  0.00000E+00  0.00000E+00  0.00000E+00    0.22130E+02  0.19002E+02 -0.41132E+02 -0.21041E+01  0.21608E+01  0.10440E+02      982.00
  0.23940E+00  0.64821E+02    0.12500E+00  0.12500E+00 -0.25000E+00  0.00000E+00  0.00000E+00  0.00000E+00    0.22230E+02  0.19034E+02 -0.41265E+02 -0.20995E+01  0.21433E+01  0.10580E+02      982.00
  0.26327E+00  0.65085E+02    0.13750E+00  0.13750E+00 -0.27500E+00  0.00000E+00  0.00000E+00  0.00000E+00    0.22321E+02  0.19085E+02 -0.41405E+02 -0.21054E+01  0.21350E+01  0.10707E+02      982.00
  0.28713E+00  0.65355E+02    0.15000E+00  0.15000E+00 -0.30000E+00  0.00000E+00  0.00000E+00  0.00000E+00    0.22406E+02  0.19144E+02 -0.41550E+02 -0.21172E+01  0.21294E+01  0.10831E+02      982.00
  0.31097E+00  0.65650E+02    0.16250E+00  0.16250E+00 -0.32500E+00  0.00000E+00  0.00000E+00  0.00000E+00    0.22495E+02  0.19211E+02 -0.41706E+02 -0.21326E+01  0.21210E+01  0.10971E+02      982.00
  0.33479E+00  0.65917E+02    0.17500E+00  0.17500E+00 -0.35000E+00  0.00000E+00  0.00000E+00  0.00000E+00    0.22569E+02  0.19283E+02 -0.41852E+02 -0.21527E+01  0.21187E+01  0.11084E+02      982.00
  0.35860E+00  0.66178E+02    0.18750E+00  0.18750E+00 -0.37500E+00  0.00000E+00  0.00000E+00  0.00000E+00    0.22637E+02  0.19359E+02 -0.41996E+02 -0.21749E+01  0.21176E+01  0.11190E+02      982.00
  0.38240E+00  0.66392E+02    0.20000E+00  0.20000E+00 -0.40000E+00  0.00000E+00  0.00000E+00  0.00000E+00    0.22686E+02  0.19427E+02 -0.42114E+02 -0.21971E+01  0.21156E+01  0.11277E+02      982.00
  0.40619E+00  0.66675E+02    0.21250E+00  0.21250E+00 -0.42500E+00  0.00000E+00  0.00000E+00  0.00000E+00    0.22753E+02  0.19516E+02 -0.42269E+02 -0.22247E+01  0.21133E+01  0.11393E+02      982.00
  0.42996E+00  0.66903E+02    0.22500E+00  0.22500E+00 -0.45000E+00  0.00000E+00  0.00000E+00  0.00000E+00    0.22802E+02  0.19596E+02 -0.42398E+02 -0.22480E+01  0.21106E+01  0.11477E+02      982.00
  0.45373E+00  0.67118E+02    0.23750E+00  0.23750E+00 -0.47500E+00  0.00000E+00  0.00000E+00  0.00000E+00    0.22846E+02  0.19675E+02 -0.42520E+02 -0.22710E+01  0.21079E+01  0.11554E+02      982.00
  0.47748E+00  0.67320E+02    0.25000E+00  0.25000E+00 -0.50000E+00  0.00000E+00  0.00000E+00  0.00000E+00    0.22884E+02  0.19752E+02 -0.42636E+02 -0.22930E+01  0.21043E+01  0.11625E+02      982.00
  0.50123E+00  0.67509E+02    0.26250E+00  0.26250E+00 -0.52500E+00  0.00000E+00  0.00000E+00  0.00000E+00    0.22919E+02  0.19826E+02 -0.42745E+02 -0.23139E+01  0.20998E+01  0.11689E+02      982.00
  0.52498E+00  0.67681E+02    0.27500E+00  0.27500E+00 -0.55000E+00  0.00000E+00  0.00000E+00  0.00000E+00    0.22947E+02  0.19898E+02 -0.42845E+02 -0.23315E+01  0.20934E+01  0.11746E+02      982.00
  0.54872E+00  0.67849E+02    0.28750E+00  0.28750E+00 -0.57500E+00  0.00000E+00  0.00000E+00  0.00000E+00    0.22974E+02  0.19968E+02 -0.42943E+02 -0.23519E+01  0.20881E+01  0.11802E+02      982.00
  0.57245E+00  0.67969E+02    0.30000E+00  0.30000E+00 -0.60000E+00  0.00000E+00  0.00000E+00  0.00000E+00    0.22994E+02  0.20021E+02 -0.43015E+02 -0.23644E+01  0.20841E+01  0.11836E+02      982.00
  0.59618E+00  0.68110E+02    0.31250E+00  0.31250E+00 -0.62500E+00  0.00000E+00  0.00000E+00  0.00000E+00    0.23008E+02  0.20087E+02 -0.43094E+02 -0.23857E+01  0.20769E+01  0.11889E+02      982.00
  0.61991E+00  0.68242E+02    0.32500E+00  0.32500E+00 -0.65000E+00  0.00000E+00  0.00000E+00  0.00000E+00    0.23024E+02  0.20148E+02 -0.43172E+02 -0.24019E+01  0.20696E+01  0.11929E+02      982.00
  0.64363E+00  0.68366E+02    0.33750E+00  0.33750E+00 -0.67500E+00  0.00000E+00  0.00000E+00  0.00000E+00    0.23038E+02  0.20208E+02 -0.43246E+02 -0.24154E+01  0.20617E+01  0.11967E+02      982.00
  0.66735E+00  0.68508E+02    0.35000E+00  0.35000E+00 -0.70000E+00  0.00000E+00  0.00000E+00  0.00000E+00    0.23050E+02  0.20279E+02 -0.43330E+02 -0.24321E+01  0.20502E+01  0.12014E+02      982.00
  0.69107E+00  0.68613E+02    0.36250E+00  0.36250E+00 -0.72500E+00  0.00000E+00  0.00000E+00  0.00000E+00    0.23058E+02  0.20335E+02 -0.43393E+02 -0.24429E+01  0.20405E+01  0.12044E+02      982.00
  0.71479E+00  0.68708E+02    0.37500E+00  0.37500E+00 -0.75000E+00  0.00000E+00  0.00000E+00  0.00000E+00    0.23065E+02  0.20385E+02 -0.43450E+02 -0.24527E+01  0.20318E+01  0.12072E+02      982.00
  0.73850E+00  0.68797E+02    0.38750E+00  0.38750E+00 -0.77500E+00  0.00000E+00  0.00000E+00  0.00000E+00    0.23071E+02  0.20433E+02 -0.43504E+02 -0.24616E+01  0.20232E+01  0.12097E+02      982.00
  0.76222E+00  0.68879E+02    0.40000E+00  0.40000E+00 -0.80000E+00  0.00000E+00  0.00000E+00  0.00000E+00    0.23076E+02  0.20478E+02 -0.43554E+02 -0.24698E+01  0.20149E+01  0.12120E+02      982.00
  0.78593E+00  0.68955E+02    0.41250E+00  0.41250E+00 -0.82500E+00  0.00000E+00  0.00000E+00  0.00000E+00    0.23079E+02  0.20521E+02 -0.43600E+02 -0.24772E+01  0.20068E+01  0.12141E+02      982.00
  0.80964E+00  0.69026E+02    0.42500E+00  0.42500E+00 -0.85000E+00  0.00000E+00  0.00000E+00  0.00000E+00    0.23081E+02  0.20562E+02 -0.43644E+02 -0.24841E+01  0.19990E+01  0.12161E+02      982.00
  0.83335E+00  0.69092E+02    0.43750E+00  0.43750E+00 -0.87500E+00  0.00000E+00  0.00000E+00  0.00000E+00    0.23083E+02  0.20601E+02 -0.43684E+02 -0.24904E+01  0.19915E+01  0.12179E+02      982.00
  0.85706E+00  0.69154E+02    0.45000E+00  0.45000E+00 -0.90000E+00  0.00000E+00  0.00000E+00  0.00000E+00    0.23083E+02  0.20638E+02 -0.43722E+02 -0.24961E+01  0.19844E+01  0.12196E+02      982.00
  0.88077E+00  0.69211E+02    0.46250E+00  0.46250E+00 -0.92500E+00  0.00000E+00  0.00000E+00  0.00000E+00    0.23083E+02  0.20673E+02 -0.43757E+02 -0.25014E+01  0.19777E+01  0.12211E+02      982.00
  0.90448E+00  0.69278E+02    0.47500E+00  0.47500E+00 -0.95000E+00  0.00000E+00  0.00000E+00  0.00000E+00    0.23075E+02  0.20723E+02 -0.43799E+02 -0.25062E+01  0.19640E+01  0.12230E+02      982.00
  0.92818E+00  0.69314E+02    0.48750E+00  0.48750E+00 -0.97500E+00  0.00000E+00  0.00000E+00  0.00000E+00    0.23080E+02  0.20740E+02 -0.43820E+02 -0.25115E+01  0.19637E+01  0.12239E+02      982.00
  0.95189E+00  0.69313E+02    0.50000E+00  0.50000E+00 -0.10000E+01  0.00000E+00  0.00000E+00  0.00000E+00    0.23089E+02  0.20731E+02 -0.43820E+02 -0.25035E+01  0.19594E+01  0.12238E+02      982.00
