          Evm          Svm            E11          E22          E33          E23          E13          E12         SDEV11       SDEV22       SDEV33       SDEV23       SDEV13       SDEV12      TEMP
  0.00000E+00  0.46584E+02    0.00000E+00  0.00000E+00  0.00000E+00  0.00000E+00  0.00000E+00  0.00000E+00    0.20264E+02  0.99367E+01 -0.30201E+02 -0.18294E+01 -0.81810E-01  0.30425E+01      982.00
  0.24312E-01  0.46464E+02    0.12500E-01  0.12500E-01 -0.25000E-01  0.00000E+00  0.00000E+00  0.00000E+00    0.20545E+02  0.96133E+01 -0.30159E+02 -0.16370E+01  0.23158E+00  0.22050E+01      982.00
  0.48652E-01  0.46469E+02    0.25000E-01  0.25000E-01 -0.50000E-01  0.00000E+00  0.00000E+00  0.00000E+00    0.20862E+02  0.93090E+01 -0.30171E+02 -0.13112E+01  0.59211E+00  0.12831E+01      982.00
  0.73000E-01  0.46650E+02    0.37500E-01  0.37500E-01 -0.75000E-01  0.00000E+00  0.00000E+00  0.00000E+00    0.21232E+02  0.90172E+01 -0.30250E+02 -0.74069E+00  0.11143E+01  0.15753E+00      982.00
  0.97316E-01  0.46983E+02    0.50000E-01  0.50000E-01 -0.10000E+00  0.00000E+00  0.00000E+00  0.00000E+00    0.21389E+02  0.89393E+01 -0.30328E+02  0.39483E+00  0.21865E+01 -0.15071E+01      982.00
  0.12152E+00  0.47406E+02    0.62500E-01  0.62500E-01 -0.12500E+00  0.00000E+00  0.00000E+00  0.00000E+00    0.21087E+02  0.92554E+01 -0.30343E+02  0.15238E+01  0.33753E+01 -0.31449E+01      982.00
  0.14553E+00  0.47954E+02    0.75000E-01  0.75000E-01 -0.15000E+00  0.00000E+00  0.00000E+00  0.00000E+00    0.20910E+02  0.95306E+01 -0.30441E+02  0.21835E+01  0.40513E+01 -0.42390E+01      982.00
  0.16933E+00  0.48544E+02    0.87500E-01  0.87500E-01 -0.17500E+00  0.00000E+00  0.00000E+00  0.00000E+00    0.20860E+02  0.97443E+01 -0.30604E+02  0.26074E+01  0.44558E+01 -0.50500E+01      982.00
  0.19297E+00  0.49145E+02    0.10000E+00  0.10000E+00 -0.20000E+00  0.00000E+00  0.00000E+00  0.00000E+00    0.20879E+02  0.99273E+01 -0.30806E+02  0.29092E+01  0.47219E+01 -0.57081E+01      982.00
  0.21648E+00  0.49746E+02    0.11250E+00  0.11250E+00 -0.22500E+00  0.00000E+00  0.00000E+00  0.00000E+00    0.20940E+02  0.10094E+02 -0.31034E+02  0.31338E+01  0.49036E+01 -0.62654E+01      982.00
  0.23987E+00  0.50344E+02    0.12500E+00  0.12500E+00 -0.25000E+00  0.00000E+00  0.00000E+00  0.00000E+00    0.21027E+02  0.10255E+02 -0.31282E+02  0.33089E+01  0.50326E+01 -0.67536E+01      982.00
  0.26317E+00  0.50937E+02    0.13750E+00  0.13750E+00 -0.27500E+00  0.00000E+00  0.00000E+00  0.00000E+00    0.21132E+02  0.10412E+02 -0.31544E+02  0.34481E+01  0.51250E+01 -0.71889E+01      982.00
  0.28640E+00  0.51525E+02    0.15000E+00  0.15000E+00 -0.30000E+00  0.00000E+00  0.00000E+00  0.00000E+00    0.21249E+02  0.10570E+02 -0.31819E+02  0.35594E+01  0.51896E+01 -0.75815E+01      982.00
  0.30956E+00  0.52114E+02    0.16250E+00  0.16250E+00 -0.32500E+00  0.00000E+00  0.00000E+00  0.00000E+00    0.21372E+02  0.10734E+02 -0.32106E+02  0.36547E+01  0.52373E+01 -0.79448E+01      982.00
  0.33266E+00  0.52695E+02    0.17500E+00  0.17500E+00 -0.35000E+00  0.00000E+00  0.00000E+00  0.00000E+00    0.21499E+02  0.10901E+02 -0.32401E+02  0.37324E+01  0.52705E+01 -0.82738E+01      982.00
  0.35572E+00  0.53272E+02    0.18750E+00  0.18750E+00 -0.37500E+00  0.00000E+00  0.00000E+00  0.00000E+00    0.21627E+02  0.11075E+02 -0.32702E+02  0.37995E+01  0.52964E+01 -0.85773E+01      982.00
  0.37874E+00  0.53848E+02    0.20000E+00  0.20000E+00 -0.40000E+00  0.00000E+00  0.00000E+00  0.00000E+00    0.21753E+02  0.11257E+02 -0.33010E+02  0.38596E+01  0.53196E+01 -0.88610E+01      982.00
  0.40172E+00  0.54418E+02    0.21250E+00  0.21250E+00 -0.42500E+00  0.00000E+00  0.00000E+00  0.00000E+00    0.21875E+02  0.11452E+02 -0.33326E+02  0.39072E+01  0.53338E+01 -0.91232E+01      982.00
  0.42469E+00  0.54985E+02    0.22500E+00  0.22500E+00 -0.45000E+00  0.00000E+00  0.00000E+00  0.00000E+00    0.21989E+02  0.11659E+02 -0.33648E+02  0.39497E+01  0.53476E+01 -0.93684E+01      982.00
  0.44764E+00  0.55555E+02    0.23750E+00  0.23750E+00 -0.47500E+00  0.00000E+00  0.00000E+00  0.00000E+00    0.22096E+02  0.11878E+02 -0.33974E+02  0.39950E+01  0.53702E+01 -0.96043E+01      982.00
  0.47057E+00  0.56114E+02    0.25000E+00  0.25000E+00 -0.50000E+00  0.00000E+00  0.00000E+00  0.00000E+00    0.22193E+02  0.12110E+02 -0.34303E+02  0.40287E+01  0.53866E+01 -0.98180E+01      982.00
  0.49350E+00  0.56666E+02    0.26250E+00  0.26250E+00 -0.52500E+00  0.00000E+00  0.00000E+00  0.00000E+00    0.22281E+02  0.12354E+02 -0.34635E+02  0.40578E+01  0.54049E+01 -0.10016E+02      982.00
  0.51642E+00  0.57210E+02    0.27500E+00  0.27500E+00 -0.55000E+00  0.00000E+00  0.00000E+00  0.00000E+00    0.22359E+02  0.12609E+02 -0.34968E+02  0.40827E+01  0.54255E+01 -0.10200E+02      982.00
  0.53934E+00  0.57746E+02    0.28750E+00  0.28750E+00 -0.57500E+00  0.00000E+00  0.00000E+00  0.00000E+00    0.22428E+02  0.12874E+02 -0.35302E+02  0.41032E+01  0.54485E+01 -0.10370E+02      982.00
  0.56226E+00  0.58271E+02    0.30000E+00  0.30000E+00 -0.60000E+00  0.00000E+00  0.00000E+00  0.00000E+00    0.22486E+02  0.13148E+02 -0.35634E+02  0.41194E+01  0.54735E+01 -0.10525E+02      982.00
  0.58519E+00  0.58785E+02    0.31250E+00  0.31250E+00 -0.62500E+00  0.00000E+00  0.00000E+00  0.00000E+00    0.22534E+02  0.13430E+02 -0.35964E+02  0.41309E+01  0.55004E+01 -0.10666E+02      982.00
  0.60814E+00  0.59286E+02    0.32500E+00  0.32500E+00 -0.65000E+00  0.00000E+00  0.00000E+00  0.00000E+00    0.22573E+02  0.13719E+02 -0.36292E+02  0.41379E+01  0.55287E+01 -0.10794E+02      982.00
  0.63109E+00  0.59775E+02    0.33750E+00  0.33750E+00 -0.67500E+00  0.00000E+00  0.00000E+00  0.00000E+00    0.22602E+02  0.14013E+02 -0.36615E+02  0.41403E+01  0.55582E+01 -0.10909E+02      982.00
  0.65406E+00  0.60249E+02    0.35000E+00  0.35000E+00 -0.70000E+00  0.00000E+00  0.00000E+00  0.00000E+00    0.22623E+02  0.14311E+02 -0.36934E+02  0.41382E+01  0.55884E+01 -0.11011E+02      982.00
  0.67705E+00  0.60708E+02    0.36250E+00  0.36250E+00 -0.72500E+00  0.00000E+00  0.00000E+00  0.00000E+00    0.22635E+02  0.14612E+02 -0.37248E+02  0.41316E+01  0.56189E+01 -0.11100E+02      982.00
  0.70006E+00  0.61152E+02    0.37500E+00  0.37500E+00 -0.75000E+00  0.00000E+00  0.00000E+00  0.00000E+00    0.22640E+02  0.14915E+02 -0.37555E+02  0.41208E+01  0.56495E+01 -0.11177E+02      982.00
  0.72309E+00  0.61586E+02    0.38750E+00  0.38750E+00 -0.77500E+00  0.00000E+00  0.00000E+00  0.00000E+00    0.22628E+02  0.15231E+02 -0.37860E+02  0.41062E+01  0.56857E+01 -0.11243E+02      982.00
  0.74614E+00  0.61995E+02    0.40000E+00  0.40000E+00 -0.80000E+00  0.00000E+00  0.00000E+00  0.00000E+00    0.22628E+02  0.15523E+02 -0.38151E+02  0.40869E+01  0.57074E+01 -0.11296E+02      982.00
  0.76922E+00  0.62392E+02    0.41250E+00  0.41250E+00 -0.82500E+00  0.00000E+00  0.00000E+00  0.00000E+00    0.22612E+02  0.15825E+02 -0.38437E+02  0.40651E+01  0.57356E+01 -0.11340E+02      982.00
  0.79232E+00  0.62763E+02    0.42500E+00  0.42500E+00 -0.85000E+00  0.00000E+00  0.00000E+00  0.00000E+00    0.22594E+02  0.16114E+02 -0.38708E+02  0.40385E+01  0.57592E+01 -0.11372E+02      982.00
  0.81545E+00  0.63128E+02    0.43750E+00  0.43750E+00 -0.87500E+00  0.00000E+00  0.00000E+00  0.00000E+00    0.22567E+02  0.16411E+02 -0.38978E+02  0.40109E+01  0.57858E+01 -0.11397E+02      982.00
  0.83860E+00  0.63479E+02    0.45000E+00  0.45000E+00 -0.90000E+00  0.00000E+00  0.00000E+00  0.00000E+00    0.22535E+02  0.16705E+02 -0.39240E+02  0.39806E+01  0.58113E+01 -0.11413E+02      982.00
  0.86178E+00  0.63820E+02    0.46250E+00  0.46250E+00 -0.92500E+00  0.00000E+00  0.00000E+00  0.00000E+00    0.22498E+02  0.17002E+02 -0.39500E+02  0.39509E+01  0.58279E+01 -0.11418E+02      982.00
  0.88499E+00  0.64139E+02    0.47500E+00  0.47500E+00 -0.95000E+00  0.00000E+00  0.00000E+00  0.00000E+00    0.22456E+02  0.17288E+02 -0.39743E+02  0.39171E+01  0.58504E+01 -0.11417E+02      982.00
  0.90823E+00  0.64442E+02    0.48750E+00  0.48750E+00 -0.97500E+00  0.00000E+00  0.00000E+00  0.00000E+00    0.22409E+02  0.17569E+02 -0.39978E+02  0.38812E+01  0.58720E+01 -0.11409E+02      982.00
  0.93149E+00  0.64731E+02    0.50000E+00  0.50000E+00 -0.10000E+01  0.00000E+00  0.00000E+00  0.00000E+00    0.22360E+02  0.17845E+02 -0.40204E+02  0.38439E+01  0.58922E+01 -0.11393E+02      982.00
