          Evm          Svm            E11          E22          E33          E23          E13          E12         SDEV11       SDEV22       SDEV33       SDEV23       SDEV13       SDEV12      TEMP
  0.00000E+00  0.57413E+02    0.00000E+00  0.00000E+00  0.00000E+00  0.00000E+00  0.00000E+00  0.00000E+00    0.16008E+02  0.17082E+02 -0.33090E+02 -0.37325E+01  0.69841E+00  0.16212E+02      982.00
  0.21613E-01  0.57278E+02    0.12500E-01  0.12500E-01 -0.25000E-01  0.00000E+00  0.00000E+00  0.00000E+00    0.15923E+02  0.17164E+02 -0.33087E+02 -0.36491E+01  0.10324E+01  0.16055E+02      982.00
  0.43275E-01  0.57299E+02    0.25000E-01  0.25000E-01 -0.50000E-01  0.00000E+00  0.00000E+00  0.00000E+00    0.15919E+02  0.17230E+02 -0.33149E+02 -0.35666E+01  0.12563E+01  0.15984E+02      982.00
  0.64970E-01  0.57452E+02    0.37500E-01  0.37500E-01 -0.75000E-01  0.00000E+00  0.00000E+00  0.00000E+00    0.15951E+02  0.17315E+02 -0.33266E+02 -0.34714E+01  0.14301E+01  0.15991E+02      982.00
  0.86684E-01  0.57689E+02    0.50000E-01  0.50000E-01 -0.10000E+00  0.00000E+00  0.00000E+00  0.00000E+00    0.16003E+02  0.17408E+02 -0.33411E+02 -0.33697E+01  0.15553E+01  0.16058E+02      982.00
  0.10840E+00  0.58009E+02    0.62500E-01  0.62500E-01 -0.12500E+00  0.00000E+00  0.00000E+00  0.00000E+00    0.16076E+02  0.17514E+02 -0.33590E+02 -0.32733E+01  0.16453E+01  0.16172E+02      982.00
  0.13012E+00  0.58383E+02    0.75000E-01  0.75000E-01 -0.15000E+00  0.00000E+00  0.00000E+00  0.00000E+00    0.16162E+02  0.17630E+02 -0.33791E+02 -0.31756E+01  0.17151E+01  0.16316E+02      982.00
  0.15182E+00  0.58792E+02    0.87500E-01  0.87500E-01 -0.17500E+00  0.00000E+00  0.00000E+00  0.00000E+00    0.16256E+02  0.17749E+02 -0.34006E+02 -0.30912E+01  0.17610E+01  0.16482E+02      982.00
  0.17351E+00  0.59225E+02    0.10000E+00  0.10000E+00 -0.20000E+00  0.00000E+00  0.00000E+00  0.00000E+00    0.16359E+02  0.17871E+02 -0.34230E+02 -0.30159E+01  0.17936E+01  0.16660E+02      982.00
  0.19518E+00  0.59654E+02    0.11250E+00  0.11250E+00 -0.22500E+00  0.00000E+00  0.00000E+00  0.00000E+00    0.16463E+02  0.17991E+02 -0.34453E+02 -0.29378E+01  0.18172E+01  0.16834E+02      982.00
  0.21684E+00  0.60094E+02    0.12500E+00  0.12500E+00 -0.25000E+00  0.00000E+00  0.00000E+00  0.00000E+00    0.16573E+02  0.18109E+02 -0.34682E+02 -0.28806E+01  0.18331E+01  0.17011E+02      982.00
  0.23849E+00  0.60523E+02    0.13750E+00  0.13750E+00 -0.27500E+00  0.00000E+00  0.00000E+00  0.00000E+00    0.16686E+02  0.18222E+02 -0.34908E+02 -0.28313E+01  0.18440E+01  0.17178E+02      982.00
  0.26011E+00  0.60927E+02    0.15000E+00  0.15000E+00 -0.30000E+00  0.00000E+00  0.00000E+00  0.00000E+00    0.16797E+02  0.18326E+02 -0.35123E+02 -0.27770E+01  0.18509E+01  0.17334E+02      982.00
  0.28173E+00  0.61317E+02    0.16250E+00  0.16250E+00 -0.32500E+00  0.00000E+00  0.00000E+00  0.00000E+00    0.16910E+02  0.18424E+02 -0.35334E+02 -0.27407E+01  0.18560E+01  0.17474E+02      982.00
  0.30334E+00  0.61682E+02    0.17500E+00  0.17500E+00 -0.35000E+00  0.00000E+00  0.00000E+00  0.00000E+00    0.17022E+02  0.18515E+02 -0.35537E+02 -0.27090E+01  0.18587E+01  0.17599E+02      982.00
  0.32495E+00  0.62028E+02    0.18750E+00  0.18750E+00 -0.37500E+00  0.00000E+00  0.00000E+00  0.00000E+00    0.17136E+02  0.18593E+02 -0.35729E+02 -0.26706E+01  0.18594E+01  0.17718E+02      982.00
  0.34655E+00  0.62340E+02    0.20000E+00  0.20000E+00 -0.40000E+00  0.00000E+00  0.00000E+00  0.00000E+00    0.17246E+02  0.18666E+02 -0.35911E+02 -0.26451E+01  0.18595E+01  0.17812E+02      982.00
  0.36815E+00  0.62628E+02    0.21250E+00  0.21250E+00 -0.42500E+00  0.00000E+00  0.00000E+00  0.00000E+00    0.17352E+02  0.18730E+02 -0.36082E+02 -0.26221E+01  0.18581E+01  0.17894E+02      982.00
  0.38975E+00  0.62893E+02    0.22500E+00  0.22500E+00 -0.45000E+00  0.00000E+00  0.00000E+00  0.00000E+00    0.17456E+02  0.18786E+02 -0.36243E+02 -0.26004E+01  0.18556E+01  0.17964E+02      982.00
  0.41136E+00  0.63133E+02    0.23750E+00  0.23750E+00 -0.47500E+00  0.00000E+00  0.00000E+00  0.00000E+00    0.17556E+02  0.18836E+02 -0.36392E+02 -0.25789E+01  0.18518E+01  0.18023E+02      982.00
  0.43298E+00  0.63355E+02    0.25000E+00  0.25000E+00 -0.50000E+00  0.00000E+00  0.00000E+00  0.00000E+00    0.17654E+02  0.18878E+02 -0.36533E+02 -0.25590E+01  0.18477E+01  0.18073E+02      982.00
  0.45460E+00  0.63558E+02    0.26250E+00  0.26250E+00 -0.52500E+00  0.00000E+00  0.00000E+00  0.00000E+00    0.17750E+02  0.18914E+02 -0.36664E+02 -0.25397E+01  0.18428E+01  0.18116E+02      982.00
  0.47624E+00  0.63744E+02    0.27500E+00  0.27500E+00 -0.55000E+00  0.00000E+00  0.00000E+00  0.00000E+00    0.17842E+02  0.18945E+02 -0.36787E+02 -0.25209E+01  0.18373E+01  0.18151E+02      982.00
  0.49788E+00  0.63914E+02    0.28750E+00  0.28750E+00 -0.57500E+00  0.00000E+00  0.00000E+00  0.00000E+00    0.17931E+02  0.18970E+02 -0.36901E+02 -0.25026E+01  0.18314E+01  0.18180E+02      982.00
  0.51953E+00  0.64070E+02    0.30000E+00  0.30000E+00 -0.60000E+00  0.00000E+00  0.00000E+00  0.00000E+00    0.18017E+02  0.18990E+02 -0.37008E+02 -0.24847E+01  0.18250E+01  0.18205E+02      982.00
  0.54119E+00  0.64201E+02    0.31250E+00  0.31250E+00 -0.62500E+00  0.00000E+00  0.00000E+00  0.00000E+00    0.18103E+02  0.18994E+02 -0.37097E+02 -0.24637E+01  0.18185E+01  0.18227E+02      982.00
  0.56286E+00  0.64334E+02    0.32500E+00  0.32500E+00 -0.65000E+00  0.00000E+00  0.00000E+00  0.00000E+00    0.18184E+02  0.19006E+02 -0.37191E+02 -0.24461E+01  0.18119E+01  0.18243E+02      982.00
  0.58454E+00  0.64454E+02    0.33750E+00  0.33750E+00 -0.67500E+00  0.00000E+00  0.00000E+00  0.00000E+00    0.18262E+02  0.19016E+02 -0.37277E+02 -0.24294E+01  0.18048E+01  0.18256E+02      982.00
  0.60622E+00  0.64566E+02    0.35000E+00  0.35000E+00 -0.70000E+00  0.00000E+00  0.00000E+00  0.00000E+00    0.18337E+02  0.19022E+02 -0.37358E+02 -0.24133E+01  0.17977E+01  0.18267E+02      982.00
  0.62792E+00  0.64669E+02    0.36250E+00  0.36250E+00 -0.72500E+00  0.00000E+00  0.00000E+00  0.00000E+00    0.18409E+02  0.19025E+02 -0.37434E+02 -0.23977E+01  0.17904E+01  0.18275E+02      982.00
  0.64963E+00  0.64763E+02    0.37500E+00  0.37500E+00 -0.75000E+00  0.00000E+00  0.00000E+00  0.00000E+00    0.18478E+02  0.19026E+02 -0.37505E+02 -0.23827E+01  0.17833E+01  0.18282E+02      982.00
  0.67135E+00  0.64851E+02    0.38750E+00  0.38750E+00 -0.77500E+00  0.00000E+00  0.00000E+00  0.00000E+00    0.18545E+02  0.19025E+02 -0.37570E+02 -0.23683E+01  0.17762E+01  0.18287E+02      982.00
  0.69307E+00  0.64932E+02    0.40000E+00  0.40000E+00 -0.80000E+00  0.00000E+00  0.00000E+00  0.00000E+00    0.18610E+02  0.19022E+02 -0.37632E+02 -0.23544E+01  0.17693E+01  0.18291E+02      982.00
  0.71480E+00  0.65007E+02    0.41250E+00  0.41250E+00 -0.82500E+00  0.00000E+00  0.00000E+00  0.00000E+00    0.18672E+02  0.19018E+02 -0.37689E+02 -0.23411E+01  0.17626E+01  0.18294E+02      982.00
  0.73655E+00  0.65077E+02    0.42500E+00  0.42500E+00 -0.85000E+00  0.00000E+00  0.00000E+00  0.00000E+00    0.18732E+02  0.19011E+02 -0.37743E+02 -0.23285E+01  0.17561E+01  0.18296E+02      982.00
  0.75829E+00  0.65142E+02    0.43750E+00  0.43750E+00 -0.87500E+00  0.00000E+00  0.00000E+00  0.00000E+00    0.18789E+02  0.19004E+02 -0.37793E+02 -0.23165E+01  0.17498E+01  0.18298E+02      982.00
  0.78005E+00  0.65202E+02    0.45000E+00  0.45000E+00 -0.90000E+00  0.00000E+00  0.00000E+00  0.00000E+00    0.18845E+02  0.18995E+02 -0.37840E+02 -0.23051E+01  0.17437E+01  0.18299E+02      982.00
  0.80181E+00  0.65259E+02    0.46250E+00  0.46250E+00 -0.92500E+00  0.00000E+00  0.00000E+00  0.00000E+00    0.18899E+02  0.18985E+02 -0.37884E+02 -0.22943E+01  0.17380E+01  0.18299E+02      982.00
  0.82358E+00  0.65311E+02    0.47500E+00  0.47500E+00 -0.95000E+00  0.00000E+00  0.00000E+00  0.00000E+00    0.18951E+02  0.18974E+02 -0.37925E+02 -0.22842E+01  0.17325E+01  0.18300E+02      982.00
  0.84536E+00  0.65348E+02    0.48750E+00  0.48750E+00 -0.97500E+00  0.00000E+00  0.00000E+00  0.00000E+00    0.19008E+02  0.18947E+02 -0.37955E+02 -0.22714E+01  0.17270E+01  0.18300E+02      982.00
  0.86714E+00  0.65370E+02    0.50000E+00  0.50000E+00 -0.10000E+01  0.00000E+00  0.00000E+00  0.00000E+00    0.19032E+02  0.18945E+02 -0.37977E+02 -0.22568E+01  0.17188E+01  0.18295E+02      982.00
