          Evm          Svm            E11          E22          E33          E23          E13          E12         SDEV11       SDEV22       SDEV33       SDEV23       SDEV13       SDEV12      TEMP
  0.00000E+00  0.52591E+02    0.00000E+00  0.00000E+00  0.00000E+00  0.00000E+00  0.00000E+00  0.00000E+00    0.12194E+02  0.21673E+02 -0.33867E+02 -0.36793E+01 -0.50606E+01 -0.35559E+00      982.00
  0.24148E-01  0.52660E+02    0.12500E-01  0.12500E-01 -0.25000E-01  0.00000E+00  0.00000E+00  0.00000E+00    0.12108E+02  0.21798E+02 -0.33905E+02 -0.34198E+01 -0.51793E+01 -0.42070E+00      982.00
  0.48293E-01  0.52796E+02    0.25000E-01  0.25000E-01 -0.50000E-01  0.00000E+00  0.00000E+00  0.00000E+00    0.12041E+02  0.21945E+02 -0.33986E+02 -0.32088E+01 -0.52731E+01 -0.47322E+00      982.00
  0.72433E-01  0.53005E+02    0.37500E-01  0.37500E-01 -0.75000E-01  0.00000E+00  0.00000E+00  0.00000E+00    0.11985E+02  0.22122E+02 -0.34107E+02 -0.30256E+01 -0.53767E+01 -0.52290E+00      982.00
  0.96563E-01  0.53296E+02    0.50000E-01  0.50000E-01 -0.10000E+00  0.00000E+00  0.00000E+00  0.00000E+00    0.11942E+02  0.22333E+02 -0.34275E+02 -0.28685E+01 -0.54959E+01 -0.56956E+00      982.00
  0.12068E+00  0.53691E+02    0.62500E-01  0.62500E-01 -0.12500E+00  0.00000E+00  0.00000E+00  0.00000E+00    0.11916E+02  0.22586E+02 -0.34502E+02 -0.27322E+01 -0.56396E+01 -0.61517E+00      982.00
  0.14478E+00  0.54153E+02    0.75000E-01  0.75000E-01 -0.15000E+00  0.00000E+00  0.00000E+00  0.00000E+00    0.11903E+02  0.22865E+02 -0.34768E+02 -0.26162E+01 -0.57954E+01 -0.65602E+00      982.00
  0.16885E+00  0.54691E+02    0.87500E-01  0.87500E-01 -0.17500E+00  0.00000E+00  0.00000E+00  0.00000E+00    0.11907E+02  0.23172E+02 -0.35079E+02 -0.25149E+01 -0.59678E+01 -0.69496E+00      982.00
  0.19291E+00  0.55282E+02    0.10000E+00  0.10000E+00 -0.20000E+00  0.00000E+00  0.00000E+00  0.00000E+00    0.11928E+02  0.23493E+02 -0.35421E+02 -0.24235E+01 -0.61516E+01 -0.73283E+00      982.00
  0.21693E+00  0.55915E+02    0.11250E+00  0.11250E+00 -0.22500E+00  0.00000E+00  0.00000E+00  0.00000E+00    0.11965E+02  0.23825E+02 -0.35790E+02 -0.23338E+01 -0.63466E+01 -0.77268E+00      982.00
  0.24094E+00  0.56564E+02    0.12500E+00  0.12500E+00 -0.25000E+00  0.00000E+00  0.00000E+00  0.00000E+00    0.12014E+02  0.24156E+02 -0.36169E+02 -0.22507E+01 -0.65400E+01 -0.81162E+00      982.00
  0.26492E+00  0.57228E+02    0.13750E+00  0.13750E+00 -0.27500E+00  0.00000E+00  0.00000E+00  0.00000E+00    0.12079E+02  0.24482E+02 -0.36561E+02 -0.21671E+01 -0.67294E+01 -0.85202E+00      982.00
  0.28887E+00  0.57882E+02    0.15000E+00  0.15000E+00 -0.30000E+00  0.00000E+00  0.00000E+00  0.00000E+00    0.12150E+02  0.24797E+02 -0.36948E+02 -0.20827E+01 -0.69147E+01 -0.89423E+00      982.00
  0.31281E+00  0.58524E+02    0.16250E+00  0.16250E+00 -0.32500E+00  0.00000E+00  0.00000E+00  0.00000E+00    0.12232E+02  0.25098E+02 -0.37330E+02 -0.19958E+01 -0.70904E+01 -0.93810E+00      982.00
  0.33673E+00  0.59146E+02    0.17500E+00  0.17500E+00 -0.35000E+00  0.00000E+00  0.00000E+00  0.00000E+00    0.12321E+02  0.25384E+02 -0.37704E+02 -0.19064E+01 -0.72536E+01 -0.98298E+00      982.00
  0.36063E+00  0.59748E+02    0.18750E+00  0.18750E+00 -0.37500E+00  0.00000E+00  0.00000E+00  0.00000E+00    0.12415E+02  0.25654E+02 -0.38069E+02 -0.18109E+01 -0.74053E+01 -0.10316E+01      982.00
  0.38453E+00  0.60312E+02    0.20000E+00  0.20000E+00 -0.40000E+00  0.00000E+00  0.00000E+00  0.00000E+00    0.12509E+02  0.25904E+02 -0.38413E+02 -0.17185E+01 -0.75412E+01 -0.10765E+01      982.00
  0.40841E+00  0.60850E+02    0.21250E+00  0.21250E+00 -0.42500E+00  0.00000E+00  0.00000E+00  0.00000E+00    0.12605E+02  0.26139E+02 -0.38745E+02 -0.16265E+01 -0.76612E+01 -0.11198E+01      982.00
  0.43229E+00  0.61363E+02    0.22500E+00  0.22500E+00 -0.45000E+00  0.00000E+00  0.00000E+00  0.00000E+00    0.12704E+02  0.26360E+02 -0.39064E+02 -0.15355E+01 -0.77653E+01 -0.11595E+01      982.00
  0.45616E+00  0.61833E+02    0.23750E+00  0.23750E+00 -0.47500E+00  0.00000E+00  0.00000E+00  0.00000E+00    0.12798E+02  0.26560E+02 -0.39359E+02 -0.14389E+01 -0.78601E+01 -0.12012E+01      982.00
  0.48003E+00  0.62280E+02    0.25000E+00  0.25000E+00 -0.50000E+00  0.00000E+00  0.00000E+00  0.00000E+00    0.12892E+02  0.26749E+02 -0.39641E+02 -0.13498E+01 -0.79403E+01 -0.12342E+01      982.00
  0.50390E+00  0.62696E+02    0.26250E+00  0.26250E+00 -0.52500E+00  0.00000E+00  0.00000E+00  0.00000E+00    0.12982E+02  0.26924E+02 -0.39906E+02 -0.12623E+01 -0.80062E+01 -0.12624E+01      982.00
  0.52777E+00  0.63089E+02    0.27500E+00  0.27500E+00 -0.55000E+00  0.00000E+00  0.00000E+00  0.00000E+00    0.13070E+02  0.27089E+02 -0.40159E+02 -0.11772E+01 -0.80623E+01 -0.12857E+01      982.00
  0.55164E+00  0.63435E+02    0.28750E+00  0.28750E+00 -0.57500E+00  0.00000E+00  0.00000E+00  0.00000E+00    0.13151E+02  0.27232E+02 -0.40383E+02 -0.10885E+01 -0.81097E+01 -0.13089E+01      982.00
  0.57551E+00  0.63774E+02    0.30000E+00  0.30000E+00 -0.60000E+00  0.00000E+00  0.00000E+00  0.00000E+00    0.13230E+02  0.27374E+02 -0.40604E+02 -0.10082E+01 -0.81505E+01 -0.13218E+01      982.00
  0.59939E+00  0.64082E+02    0.31250E+00  0.31250E+00 -0.62500E+00  0.00000E+00  0.00000E+00  0.00000E+00    0.13304E+02  0.27503E+02 -0.40807E+02 -0.93087E+00 -0.81791E+01 -0.13295E+01      982.00
  0.62327E+00  0.64377E+02    0.32500E+00  0.32500E+00 -0.65000E+00  0.00000E+00  0.00000E+00  0.00000E+00    0.13375E+02  0.27627E+02 -0.41002E+02 -0.85624E+00 -0.82034E+01 -0.13319E+01      982.00
  0.64715E+00  0.64647E+02    0.33750E+00  0.33750E+00 -0.67500E+00  0.00000E+00  0.00000E+00  0.00000E+00    0.13442E+02  0.27740E+02 -0.41183E+02 -0.78396E+00 -0.82217E+01 -0.13292E+01      982.00
  0.67104E+00  0.64904E+02    0.35000E+00  0.35000E+00 -0.70000E+00  0.00000E+00  0.00000E+00  0.00000E+00    0.13506E+02  0.27849E+02 -0.41355E+02 -0.71425E+00 -0.82354E+01 -0.13213E+01      982.00
  0.69493E+00  0.65139E+02    0.36250E+00  0.36250E+00 -0.72500E+00  0.00000E+00  0.00000E+00  0.00000E+00    0.13564E+02  0.27949E+02 -0.41513E+02 -0.64657E+00 -0.82467E+01 -0.13089E+01      982.00
  0.71883E+00  0.65353E+02    0.37500E+00  0.37500E+00 -0.75000E+00  0.00000E+00  0.00000E+00  0.00000E+00    0.13619E+02  0.28039E+02 -0.41658E+02 -0.57519E+00 -0.82542E+01 -0.12962E+01      982.00
  0.74274E+00  0.65561E+02    0.38750E+00  0.38750E+00 -0.77500E+00  0.00000E+00  0.00000E+00  0.00000E+00    0.13671E+02  0.28129E+02 -0.41800E+02 -0.51699E+00 -0.82572E+01 -0.12708E+01      982.00
  0.76665E+00  0.65744E+02    0.40000E+00  0.40000E+00 -0.80000E+00  0.00000E+00  0.00000E+00  0.00000E+00    0.13719E+02  0.28207E+02 -0.41926E+02 -0.45027E+00 -0.82579E+01 -0.12498E+01      982.00
  0.79056E+00  0.65925E+02    0.41250E+00  0.41250E+00 -0.82500E+00  0.00000E+00  0.00000E+00  0.00000E+00    0.13764E+02  0.28286E+02 -0.42050E+02 -0.39545E+00 -0.82564E+01 -0.12157E+01      982.00
  0.81448E+00  0.66082E+02    0.42500E+00  0.42500E+00 -0.85000E+00  0.00000E+00  0.00000E+00  0.00000E+00    0.13805E+02  0.28355E+02 -0.42160E+02 -0.33776E+00 -0.82525E+01 -0.11826E+01      982.00
  0.83840E+00  0.66244E+02    0.43750E+00  0.43750E+00 -0.87500E+00  0.00000E+00  0.00000E+00  0.00000E+00    0.13847E+02  0.28425E+02 -0.42271E+02 -0.28099E+00 -0.82512E+01 -0.11458E+01      982.00
  0.86233E+00  0.66297E+02    0.45000E+00  0.45000E+00 -0.90000E+00  0.00000E+00  0.00000E+00  0.00000E+00    0.13873E+02  0.28455E+02 -0.42328E+02 -0.23327E+00 -0.81822E+01 -0.11065E+01      982.00
  0.88628E+00  0.66364E+02    0.46250E+00  0.46250E+00 -0.92500E+00  0.00000E+00  0.00000E+00  0.00000E+00    0.13900E+02  0.28489E+02 -0.42388E+02 -0.18322E+00 -0.81299E+01 -0.10653E+01      982.00
  0.91023E+00  0.66423E+02    0.47500E+00  0.47500E+00 -0.95000E+00  0.00000E+00  0.00000E+00  0.00000E+00    0.13923E+02  0.28519E+02 -0.42443E+02 -0.13408E+00 -0.80816E+01 -0.10222E+01      982.00
  0.93419E+00  0.66486E+02    0.48750E+00  0.48750E+00 -0.97500E+00  0.00000E+00  0.00000E+00  0.00000E+00    0.13946E+02  0.28552E+02 -0.42498E+02 -0.85874E-01 -0.80381E+01 -0.97598E+00      982.00
  0.95816E+00  0.66532E+02    0.50000E+00  0.50000E+00 -0.10000E+01  0.00000E+00  0.00000E+00  0.00000E+00    0.13965E+02  0.28577E+02 -0.42541E+02 -0.39010E-01 -0.79953E+01 -0.92923E+00      982.00
