          Evm          Svm            E11          E22          E33          E23          E13          E12         SDEV11       SDEV22       SDEV33       SDEV23       SDEV13       SDEV12      TEMP
  0.00000E+00  0.53026E+02    0.00000E+00  0.00000E+00  0.00000E+00  0.00000E+00  0.00000E+00  0.00000E+00    0.14928E+02  0.17120E+02 -0.32047E+02  0.36915E+01 -0.17925E+01  0.12205E+02      982.00
  0.22664E-01  0.52911E+02    0.12500E-01  0.12500E-01 -0.25000E-01  0.00000E+00  0.00000E+00  0.00000E+00    0.15575E+02  0.16458E+02 -0.32033E+02  0.26952E+01 -0.12738E+01  0.12430E+02      982.00
  0.45367E-01  0.52985E+02    0.25000E-01  0.25000E-01 -0.50000E-01  0.00000E+00  0.00000E+00  0.00000E+00    0.16401E+02  0.15691E+02 -0.32092E+02  0.15461E+01 -0.72911E+00  0.12662E+02      982.00
  0.68080E-01  0.53156E+02    0.37500E-01  0.37500E-01 -0.75000E-01  0.00000E+00  0.00000E+00  0.00000E+00    0.17318E+02  0.14847E+02 -0.32165E+02  0.40379E+00 -0.20388E+00  0.12813E+02      982.00
  0.90771E-01  0.53308E+02    0.50000E-01  0.50000E-01 -0.10000E+00  0.00000E+00  0.00000E+00  0.00000E+00    0.18146E+02  0.14059E+02 -0.32205E+02 -0.50996E+00  0.21143E+00  0.12842E+02      982.00
  0.11343E+00  0.53448E+02    0.62500E-01  0.62500E-01 -0.12500E+00  0.00000E+00  0.00000E+00  0.00000E+00    0.18813E+02  0.13421E+02 -0.32234E+02 -0.11726E+01  0.49667E+00  0.12809E+02      982.00
  0.13604E+00  0.53637E+02    0.75000E-01  0.75000E-01 -0.15000E+00  0.00000E+00  0.00000E+00  0.00000E+00    0.19347E+02  0.12944E+02 -0.32291E+02 -0.16581E+01  0.66920E+00  0.12786E+02      982.00
  0.15862E+00  0.53897E+02    0.87500E-01  0.87500E-01 -0.17500E+00  0.00000E+00  0.00000E+00  0.00000E+00    0.19797E+02  0.12592E+02 -0.32389E+02 -0.20402E+01  0.76392E+00  0.12799E+02      982.00
  0.18115E+00  0.54227E+02    0.10000E+00  0.10000E+00 -0.20000E+00  0.00000E+00  0.00000E+00  0.00000E+00    0.20197E+02  0.12328E+02 -0.32525E+02 -0.23612E+01  0.80911E+00  0.12849E+02      982.00
  0.20365E+00  0.54611E+02    0.11250E+00  0.11250E+00 -0.22500E+00  0.00000E+00  0.00000E+00  0.00000E+00    0.20557E+02  0.12137E+02 -0.32694E+02 -0.26346E+01  0.82045E+00  0.12927E+02      982.00
  0.22610E+00  0.55031E+02    0.12500E+00  0.12500E+00 -0.25000E+00  0.00000E+00  0.00000E+00  0.00000E+00    0.20890E+02  0.11997E+02 -0.32887E+02 -0.28762E+01  0.81512E+00  0.13023E+02      982.00
  0.24851E+00  0.55469E+02    0.13750E+00  0.13750E+00 -0.27500E+00  0.00000E+00  0.00000E+00  0.00000E+00    0.21199E+02  0.11897E+02 -0.33096E+02 -0.30902E+01  0.79937E+00  0.13125E+02      982.00
  0.27088E+00  0.55905E+02    0.15000E+00  0.15000E+00 -0.30000E+00  0.00000E+00  0.00000E+00  0.00000E+00    0.21487E+02  0.11827E+02 -0.33314E+02 -0.32756E+01  0.77857E+00  0.13220E+02      982.00
  0.29323E+00  0.56327E+02    0.16250E+00  0.16250E+00 -0.32500E+00  0.00000E+00  0.00000E+00  0.00000E+00    0.21740E+02  0.11789E+02 -0.33530E+02 -0.34406E+01  0.75084E+00  0.13313E+02      982.00
  0.31555E+00  0.56734E+02    0.17500E+00  0.17500E+00 -0.35000E+00  0.00000E+00  0.00000E+00  0.00000E+00    0.21978E+02  0.11764E+02 -0.33743E+02 -0.35925E+01  0.72184E+00  0.13397E+02      982.00
  0.33785E+00  0.57124E+02    0.18750E+00  0.18750E+00 -0.37500E+00  0.00000E+00  0.00000E+00  0.00000E+00    0.22198E+02  0.11752E+02 -0.33950E+02 -0.37344E+01  0.69117E+00  0.13475E+02      982.00
  0.36014E+00  0.57487E+02    0.20000E+00  0.20000E+00 -0.40000E+00  0.00000E+00  0.00000E+00  0.00000E+00    0.22388E+02  0.11766E+02 -0.34153E+02 -0.38460E+01  0.66350E+00  0.13539E+02      982.00
  0.38242E+00  0.57827E+02    0.21250E+00  0.21250E+00 -0.42500E+00  0.00000E+00  0.00000E+00  0.00000E+00    0.22558E+02  0.11792E+02 -0.34350E+02 -0.39440E+01  0.63671E+00  0.13594E+02      982.00
  0.40469E+00  0.58144E+02    0.22500E+00  0.22500E+00 -0.45000E+00  0.00000E+00  0.00000E+00  0.00000E+00    0.22711E+02  0.11827E+02 -0.34538E+02 -0.40297E+01  0.61082E+00  0.13640E+02      982.00
  0.42697E+00  0.58447E+02    0.23750E+00  0.23750E+00 -0.47500E+00  0.00000E+00  0.00000E+00  0.00000E+00    0.22854E+02  0.11862E+02 -0.34717E+02 -0.41196E+01  0.58211E+00  0.13683E+02      982.00
  0.44924E+00  0.58719E+02    0.25000E+00  0.25000E+00 -0.50000E+00  0.00000E+00  0.00000E+00  0.00000E+00    0.22974E+02  0.11912E+02 -0.34887E+02 -0.41824E+01  0.55792E+00  0.13715E+02      982.00
  0.47152E+00  0.58970E+02    0.26250E+00  0.26250E+00 -0.52500E+00  0.00000E+00  0.00000E+00  0.00000E+00    0.23080E+02  0.11968E+02 -0.35048E+02 -0.42355E+01  0.53501E+00  0.13740E+02      982.00
  0.49381E+00  0.59203E+02    0.27500E+00  0.27500E+00 -0.55000E+00  0.00000E+00  0.00000E+00  0.00000E+00    0.23174E+02  0.12025E+02 -0.35200E+02 -0.42825E+01  0.51170E+00  0.13761E+02      982.00
  0.51611E+00  0.59418E+02    0.28750E+00  0.28750E+00 -0.57500E+00  0.00000E+00  0.00000E+00  0.00000E+00    0.23256E+02  0.12088E+02 -0.35344E+02 -0.43201E+01  0.49126E+00  0.13779E+02      982.00
  0.53841E+00  0.59619E+02    0.30000E+00  0.30000E+00 -0.60000E+00  0.00000E+00  0.00000E+00  0.00000E+00    0.23328E+02  0.12153E+02 -0.35481E+02 -0.43509E+01  0.47230E+00  0.13793E+02      982.00
  0.56073E+00  0.59805E+02    0.31250E+00  0.31250E+00 -0.62500E+00  0.00000E+00  0.00000E+00  0.00000E+00    0.23391E+02  0.12219E+02 -0.35610E+02 -0.43756E+01  0.45490E+00  0.13806E+02      982.00
  0.58306E+00  0.59978E+02    0.32500E+00  0.32500E+00 -0.65000E+00  0.00000E+00  0.00000E+00  0.00000E+00    0.23445E+02  0.12287E+02 -0.35732E+02 -0.43946E+01  0.43924E+00  0.13817E+02      982.00
  0.60540E+00  0.60140E+02    0.33750E+00  0.33750E+00 -0.67500E+00  0.00000E+00  0.00000E+00  0.00000E+00    0.23491E+02  0.12356E+02 -0.35847E+02 -0.44084E+01  0.42550E+00  0.13827E+02      982.00
  0.62775E+00  0.60297E+02    0.35000E+00  0.35000E+00 -0.70000E+00  0.00000E+00  0.00000E+00  0.00000E+00    0.23527E+02  0.12433E+02 -0.35959E+02 -0.44205E+01  0.41079E+00  0.13842E+02      982.00
  0.65012E+00  0.60411E+02    0.36250E+00  0.36250E+00 -0.72500E+00  0.00000E+00  0.00000E+00  0.00000E+00    0.23558E+02  0.12487E+02 -0.36045E+02 -0.44224E+01  0.40477E+00  0.13846E+02      982.00
  0.67249E+00  0.60555E+02    0.37500E+00  0.37500E+00 -0.75000E+00  0.00000E+00  0.00000E+00  0.00000E+00    0.23583E+02  0.12565E+02 -0.36148E+02 -0.44253E+01  0.39642E+00  0.13863E+02      982.00
  0.69488E+00  0.60682E+02    0.38750E+00  0.38750E+00 -0.77500E+00  0.00000E+00  0.00000E+00  0.00000E+00    0.23606E+02  0.12637E+02 -0.36243E+02 -0.44208E+01  0.39209E+00  0.13875E+02      982.00
  0.71727E+00  0.60802E+02    0.40000E+00  0.40000E+00 -0.80000E+00  0.00000E+00  0.00000E+00  0.00000E+00    0.23626E+02  0.12706E+02 -0.36332E+02 -0.44121E+01  0.39082E+00  0.13888E+02      982.00
  0.73968E+00  0.60917E+02    0.41250E+00  0.41250E+00 -0.82500E+00  0.00000E+00  0.00000E+00  0.00000E+00    0.23643E+02  0.12775E+02 -0.36417E+02 -0.43994E+01  0.39265E+00  0.13902E+02      982.00
  0.76210E+00  0.61026E+02    0.42500E+00  0.42500E+00 -0.85000E+00  0.00000E+00  0.00000E+00  0.00000E+00    0.23656E+02  0.12842E+02 -0.36499E+02 -0.43829E+01  0.39776E+00  0.13917E+02      982.00
  0.78453E+00  0.61132E+02    0.43750E+00  0.43750E+00 -0.87500E+00  0.00000E+00  0.00000E+00  0.00000E+00    0.23667E+02  0.12909E+02 -0.36576E+02 -0.43627E+01  0.40636E+00  0.13935E+02      982.00
  0.80696E+00  0.61234E+02    0.45000E+00  0.45000E+00 -0.90000E+00  0.00000E+00  0.00000E+00  0.00000E+00    0.23676E+02  0.12975E+02 -0.36651E+02 -0.43388E+01  0.41869E+00  0.13955E+02      982.00
  0.82941E+00  0.61333E+02    0.46250E+00  0.46250E+00 -0.92500E+00  0.00000E+00  0.00000E+00  0.00000E+00    0.23684E+02  0.13040E+02 -0.36723E+02 -0.43111E+01  0.43499E+00  0.13977E+02      982.00
  0.85186E+00  0.61427E+02    0.47500E+00  0.47500E+00 -0.95000E+00  0.00000E+00  0.00000E+00  0.00000E+00    0.23699E+02  0.13091E+02 -0.36789E+02 -0.42881E+01  0.45031E+00  0.13998E+02      982.00
  0.87432E+00  0.61537E+02    0.48750E+00  0.48750E+00 -0.97500E+00  0.00000E+00  0.00000E+00  0.00000E+00    0.23711E+02  0.13152E+02 -0.36863E+02 -0.42599E+01  0.47007E+00  0.14031E+02      982.00
  0.89679E+00  0.61603E+02    0.50000E+00  0.50000E+00 -0.10000E+01  0.00000E+00  0.00000E+00  0.00000E+00    0.23706E+02  0.13206E+02 -0.36912E+02 -0.42063E+01  0.49338E+00  0.14057E+02      982.00
