          Evm          Svm            E11          E22          E33          E23          E13          E12         SDEV11       SDEV22       SDEV33       SDEV23       SDEV13       SDEV12      TEMP
  0.00000E+00  0.54443E+02    0.00000E+00  0.00000E+00  0.00000E+00  0.00000E+00  0.00000E+00  0.00000E+00    0.12915E+02  0.20234E+02 -0.33149E+02 -0.64773E+01 -0.48031E+01 -0.92441E+01      982.00
  0.22833E-01  0.54898E+02    0.12500E-01  0.12500E-01 -0.25000E-01  0.00000E+00  0.00000E+00  0.00000E+00    0.13378E+02  0.20025E+02 -0.33403E+02 -0.66887E+01 -0.48747E+01 -0.93917E+01      982.00
  0.45650E-01  0.55316E+02    0.25000E-01  0.25000E-01 -0.50000E-01  0.00000E+00  0.00000E+00  0.00000E+00    0.13755E+02  0.19906E+02 -0.33661E+02 -0.68271E+01 -0.48981E+01 -0.94922E+01      982.00
  0.68470E-01  0.55719E+02    0.37500E-01  0.37500E-01 -0.75000E-01  0.00000E+00  0.00000E+00  0.00000E+00    0.14070E+02  0.19854E+02 -0.33924E+02 -0.69127E+01 -0.49003E+01 -0.95708E+01      982.00
  0.91301E-01  0.56116E+02    0.50000E-01  0.50000E-01 -0.10000E+00  0.00000E+00  0.00000E+00  0.00000E+00    0.14337E+02  0.19855E+02 -0.34193E+02 -0.69568E+01 -0.48891E+01 -0.96382E+01      982.00
  0.11415E+00  0.56514E+02    0.62500E-01  0.62500E-01 -0.12500E+00  0.00000E+00  0.00000E+00  0.00000E+00    0.14565E+02  0.19904E+02 -0.34469E+02 -0.69694E+01 -0.48686E+01 -0.97030E+01      982.00
  0.13702E+00  0.56932E+02    0.75000E-01  0.75000E-01 -0.15000E+00  0.00000E+00  0.00000E+00  0.00000E+00    0.14765E+02  0.19992E+02 -0.34756E+02 -0.69620E+01 -0.48445E+01 -0.97789E+01      982.00
  0.15992E+00  0.57419E+02    0.87500E-01  0.87500E-01 -0.17500E+00  0.00000E+00  0.00000E+00  0.00000E+00    0.14950E+02  0.20136E+02 -0.35086E+02 -0.69409E+01 -0.48196E+01 -0.98798E+01      982.00
  0.18283E+00  0.57860E+02    0.10000E+00  0.10000E+00 -0.20000E+00  0.00000E+00  0.00000E+00  0.00000E+00    0.15098E+02  0.20300E+02 -0.35398E+02 -0.68920E+01 -0.47824E+01 -0.99529E+01      982.00
  0.20577E+00  0.58277E+02    0.11250E+00  0.11250E+00 -0.22500E+00  0.00000E+00  0.00000E+00  0.00000E+00    0.15231E+02  0.20468E+02 -0.35699E+02 -0.68287E+01 -0.47440E+01 -0.10014E+02      982.00
  0.22874E+00  0.58722E+02    0.12500E+00  0.12500E+00 -0.25000E+00  0.00000E+00  0.00000E+00  0.00000E+00    0.15379E+02  0.20637E+02 -0.36016E+02 -0.67659E+01 -0.47174E+01 -0.10080E+02      982.00
  0.25174E+00  0.59232E+02    0.13750E+00  0.13750E+00 -0.27500E+00  0.00000E+00  0.00000E+00  0.00000E+00    0.15513E+02  0.20852E+02 -0.36365E+02 -0.67017E+01 -0.46900E+01 -0.10182E+02      982.00
  0.27477E+00  0.59690E+02    0.15000E+00  0.15000E+00 -0.30000E+00  0.00000E+00  0.00000E+00  0.00000E+00    0.15653E+02  0.21035E+02 -0.36688E+02 -0.66334E+01 -0.46657E+01 -0.10253E+02      982.00
  0.29781E+00  0.60208E+02    0.16250E+00  0.16250E+00 -0.32500E+00  0.00000E+00  0.00000E+00  0.00000E+00    0.15803E+02  0.21243E+02 -0.37046E+02 -0.65623E+01 -0.46472E+01 -0.10344E+02      982.00
  0.32089E+00  0.60696E+02    0.17500E+00  0.17500E+00 -0.35000E+00  0.00000E+00  0.00000E+00  0.00000E+00    0.15954E+02  0.21433E+02 -0.37387E+02 -0.64924E+01 -0.46312E+01 -0.10420E+02      982.00
  0.34399E+00  0.61180E+02    0.18750E+00  0.18750E+00 -0.37500E+00  0.00000E+00  0.00000E+00  0.00000E+00    0.16111E+02  0.21615E+02 -0.37726E+02 -0.64243E+01 -0.46189E+01 -0.10491E+02      982.00
  0.36711E+00  0.61656E+02    0.20000E+00  0.20000E+00 -0.40000E+00  0.00000E+00  0.00000E+00  0.00000E+00    0.16273E+02  0.21787E+02 -0.38061E+02 -0.63578E+01 -0.46089E+01 -0.10557E+02      982.00
  0.39026E+00  0.62120E+02    0.21250E+00  0.21250E+00 -0.42500E+00  0.00000E+00  0.00000E+00  0.00000E+00    0.16439E+02  0.21950E+02 -0.38389E+02 -0.62932E+01 -0.46006E+01 -0.10616E+02      982.00
  0.41343E+00  0.62570E+02    0.22500E+00  0.22500E+00 -0.45000E+00  0.00000E+00  0.00000E+00  0.00000E+00    0.16607E+02  0.22101E+02 -0.38708E+02 -0.62306E+01 -0.45933E+01 -0.10667E+02      982.00
  0.43663E+00  0.63004E+02    0.23750E+00  0.23750E+00 -0.47500E+00  0.00000E+00  0.00000E+00  0.00000E+00    0.16778E+02  0.22241E+02 -0.39019E+02 -0.61698E+01 -0.45864E+01 -0.10712E+02      982.00
  0.45986E+00  0.63420E+02    0.25000E+00  0.25000E+00 -0.50000E+00  0.00000E+00  0.00000E+00  0.00000E+00    0.16949E+02  0.22370E+02 -0.39319E+02 -0.61110E+01 -0.45794E+01 -0.10749E+02      982.00
  0.48311E+00  0.63796E+02    0.26250E+00  0.26250E+00 -0.52500E+00  0.00000E+00  0.00000E+00  0.00000E+00    0.17106E+02  0.22487E+02 -0.39593E+02 -0.60608E+01 -0.45654E+01 -0.10777E+02      982.00
  0.50638E+00  0.64177E+02    0.27500E+00  0.27500E+00 -0.55000E+00  0.00000E+00  0.00000E+00  0.00000E+00    0.17276E+02  0.22596E+02 -0.39872E+02 -0.60064E+01 -0.45567E+01 -0.10802E+02      982.00
  0.52968E+00  0.64538E+02    0.28750E+00  0.28750E+00 -0.57500E+00  0.00000E+00  0.00000E+00  0.00000E+00    0.17445E+02  0.22694E+02 -0.40138E+02 -0.59528E+01 -0.45472E+01 -0.10820E+02      982.00
  0.55300E+00  0.64879E+02    0.30000E+00  0.30000E+00 -0.60000E+00  0.00000E+00  0.00000E+00  0.00000E+00    0.17611E+02  0.22782E+02 -0.40393E+02 -0.59004E+01 -0.45366E+01 -0.10832E+02      982.00
  0.57635E+00  0.65201E+02    0.31250E+00  0.31250E+00 -0.62500E+00  0.00000E+00  0.00000E+00  0.00000E+00    0.17775E+02  0.22860E+02 -0.40635E+02 -0.58494E+01 -0.45247E+01 -0.10839E+02      982.00
  0.59972E+00  0.65486E+02    0.32500E+00  0.32500E+00 -0.65000E+00  0.00000E+00  0.00000E+00  0.00000E+00    0.17924E+02  0.22927E+02 -0.40851E+02 -0.58037E+01 -0.45115E+01 -0.10843E+02      982.00
  0.62311E+00  0.65780E+02    0.33750E+00  0.33750E+00 -0.67500E+00  0.00000E+00  0.00000E+00  0.00000E+00    0.18095E+02  0.22984E+02 -0.41079E+02 -0.57481E+01 -0.45014E+01 -0.10838E+02      982.00
  0.64653E+00  0.66041E+02    0.35000E+00  0.35000E+00 -0.70000E+00  0.00000E+00  0.00000E+00  0.00000E+00    0.18234E+02  0.23045E+02 -0.41279E+02 -0.57070E+01 -0.44816E+01 -0.10835E+02      982.00
  0.66997E+00  0.66297E+02    0.36250E+00  0.36250E+00 -0.72500E+00  0.00000E+00  0.00000E+00  0.00000E+00    0.18396E+02  0.23086E+02 -0.41482E+02 -0.56535E+01 -0.44676E+01 -0.10822E+02      982.00
  0.69343E+00  0.66531E+02    0.37500E+00  0.37500E+00 -0.75000E+00  0.00000E+00  0.00000E+00  0.00000E+00    0.18540E+02  0.23128E+02 -0.41667E+02 -0.56072E+01 -0.44494E+01 -0.10809E+02      982.00
  0.71692E+00  0.66751E+02    0.38750E+00  0.38750E+00 -0.77500E+00  0.00000E+00  0.00000E+00  0.00000E+00    0.18678E+02  0.23164E+02 -0.41843E+02 -0.55629E+01 -0.44298E+01 -0.10795E+02      982.00
  0.74042E+00  0.66956E+02    0.40000E+00  0.40000E+00 -0.80000E+00  0.00000E+00  0.00000E+00  0.00000E+00    0.18812E+02  0.23196E+02 -0.42008E+02 -0.55200E+01 -0.44093E+01 -0.10778E+02      982.00
  0.76395E+00  0.67148E+02    0.41250E+00  0.41250E+00 -0.82500E+00  0.00000E+00  0.00000E+00  0.00000E+00    0.18941E+02  0.23222E+02 -0.42164E+02 -0.54784E+01 -0.43881E+01 -0.10760E+02      982.00
  0.78750E+00  0.67328E+02    0.42500E+00  0.42500E+00 -0.85000E+00  0.00000E+00  0.00000E+00  0.00000E+00    0.19065E+02  0.23245E+02 -0.42311E+02 -0.54381E+01 -0.43662E+01 -0.10741E+02      982.00
  0.81106E+00  0.67496E+02    0.43750E+00  0.43750E+00 -0.87500E+00  0.00000E+00  0.00000E+00  0.00000E+00    0.19185E+02  0.23264E+02 -0.42449E+02 -0.53991E+01 -0.43439E+01 -0.10721E+02      982.00
  0.83465E+00  0.67653E+02    0.45000E+00  0.45000E+00 -0.90000E+00  0.00000E+00  0.00000E+00  0.00000E+00    0.19299E+02  0.23280E+02 -0.42579E+02 -0.53615E+01 -0.43211E+01 -0.10701E+02      982.00
  0.85825E+00  0.67725E+02    0.46250E+00  0.46250E+00 -0.92500E+00  0.00000E+00  0.00000E+00  0.00000E+00    0.19376E+02  0.23285E+02 -0.42661E+02 -0.53038E+01 -0.42722E+01 -0.10663E+02      982.00
  0.88187E+00  0.67794E+02    0.47500E+00  0.47500E+00 -0.95000E+00  0.00000E+00  0.00000E+00  0.00000E+00    0.19460E+02  0.23281E+02 -0.42741E+02 -0.52466E+01 -0.42293E+01 -0.10624E+02      982.00
  0.90551E+00  0.67859E+02    0.48750E+00  0.48750E+00 -0.97500E+00  0.00000E+00  0.00000E+00  0.00000E+00    0.19539E+02  0.23276E+02 -0.42815E+02 -0.51913E+01 -0.41880E+01 -0.10588E+02      982.00
  0.92917E+00  0.67919E+02    0.50000E+00  0.50000E+00 -0.10000E+01  0.00000E+00  0.00000E+00  0.00000E+00    0.19615E+02  0.23270E+02 -0.42885E+02 -0.51383E+01 -0.41477E+01 -0.10554E+02      982.00
