          Evm          Svm            E11          E22          E33          E23          E13          E12         SDEV11       SDEV22       SDEV33       SDEV23       SDEV13       SDEV12      TEMP
  0.00000E+00  0.58024E+02    0.00000E+00  0.00000E+00  0.00000E+00  0.00000E+00  0.00000E+00  0.00000E+00    0.16639E+02  0.21167E+02 -0.37806E+02 -0.59936E+01 -0.41085E-01 -0.30375E+01      982.00
  0.24434E-01  0.57906E+02    0.12500E-01  0.12500E-01 -0.25000E-01  0.00000E+00  0.00000E+00  0.00000E+00    0.16651E+02  0.21054E+02 -0.37706E+02 -0.60062E+01 -0.20546E+00 -0.32334E+01      982.00
  0.48852E-01  0.57863E+02    0.25000E-01  0.25000E-01 -0.50000E-01  0.00000E+00  0.00000E+00  0.00000E+00    0.16708E+02  0.20949E+02 -0.37657E+02 -0.60058E+01 -0.36183E+00 -0.34364E+01      982.00
  0.73257E-01  0.57909E+02    0.37500E-01  0.37500E-01 -0.75000E-01  0.00000E+00  0.00000E+00  0.00000E+00    0.16828E+02  0.20840E+02 -0.37669E+02 -0.59822E+01 -0.50613E+00 -0.36841E+01      982.00
  0.97649E-01  0.58037E+02    0.50000E-01  0.50000E-01 -0.10000E+00  0.00000E+00  0.00000E+00  0.00000E+00    0.16977E+02  0.20757E+02 -0.37734E+02 -0.59269E+01 -0.61728E+00 -0.39775E+01      982.00
  0.12203E+00  0.58238E+02    0.62500E-01  0.62500E-01 -0.12500E+00  0.00000E+00  0.00000E+00  0.00000E+00    0.17124E+02  0.20721E+02 -0.37845E+02 -0.58324E+01 -0.67764E+00 -0.43193E+01      982.00
  0.14640E+00  0.58506E+02    0.75000E-01  0.75000E-01 -0.15000E+00  0.00000E+00  0.00000E+00  0.00000E+00    0.17254E+02  0.20743E+02 -0.37998E+02 -0.57031E+01 -0.70222E+00 -0.46969E+01      982.00
  0.17075E+00  0.58822E+02    0.87500E-01  0.87500E-01 -0.17500E+00  0.00000E+00  0.00000E+00  0.00000E+00    0.17368E+02  0.20809E+02 -0.38177E+02 -0.55357E+01 -0.67084E+00 -0.51151E+01      982.00
  0.19509E+00  0.59196E+02    0.10000E+00  0.10000E+00 -0.20000E+00  0.00000E+00  0.00000E+00  0.00000E+00    0.17452E+02  0.20935E+02 -0.38387E+02 -0.53411E+01 -0.58163E+00 -0.55682E+01      982.00
  0.21941E+00  0.59618E+02    0.11250E+00  0.11250E+00 -0.22500E+00  0.00000E+00  0.00000E+00  0.00000E+00    0.17521E+02  0.21096E+02 -0.38617E+02 -0.51345E+01 -0.46600E+00 -0.60438E+01      982.00
  0.24370E+00  0.60061E+02    0.12500E+00  0.12500E+00 -0.25000E+00  0.00000E+00  0.00000E+00  0.00000E+00    0.17587E+02  0.21264E+02 -0.38851E+02 -0.49310E+01 -0.35706E+00 -0.65246E+01      982.00
  0.26796E+00  0.60489E+02    0.13750E+00  0.13750E+00 -0.27500E+00  0.00000E+00  0.00000E+00  0.00000E+00    0.17641E+02  0.21428E+02 -0.39069E+02 -0.47255E+01 -0.26094E+00 -0.69898E+01      982.00
  0.29218E+00  0.60892E+02    0.15000E+00  0.15000E+00 -0.30000E+00  0.00000E+00  0.00000E+00  0.00000E+00    0.17678E+02  0.21594E+02 -0.39272E+02 -0.44966E+01 -0.15416E+00 -0.74284E+01      982.00
  0.31636E+00  0.61298E+02    0.16250E+00  0.16250E+00 -0.32500E+00  0.00000E+00  0.00000E+00  0.00000E+00    0.17691E+02  0.21786E+02 -0.39477E+02 -0.42330E+01 -0.33752E-02 -0.78456E+01      982.00
  0.34051E+00  0.61720E+02    0.17500E+00  0.17500E+00 -0.35000E+00  0.00000E+00  0.00000E+00  0.00000E+00    0.17679E+02  0.22012E+02 -0.39691E+02 -0.39414E+01  0.19933E+00 -0.82446E+01      982.00
  0.36463E+00  0.62162E+02    0.18750E+00  0.18750E+00 -0.37500E+00  0.00000E+00  0.00000E+00  0.00000E+00    0.17659E+02  0.22258E+02 -0.39917E+02 -0.36371E+01  0.43001E+00 -0.86212E+01      982.00
  0.38871E+00  0.62615E+02    0.20000E+00  0.20000E+00 -0.40000E+00  0.00000E+00  0.00000E+00  0.00000E+00    0.17638E+02  0.22510E+02 -0.40148E+02 -0.33340E+01  0.66884E+00 -0.89733E+01      982.00
  0.41275E+00  0.63074E+02    0.21250E+00  0.21250E+00 -0.42500E+00  0.00000E+00  0.00000E+00  0.00000E+00    0.17616E+02  0.22766E+02 -0.40382E+02 -0.30380E+01  0.90895E+00 -0.92951E+01      982.00
  0.43676E+00  0.63527E+02    0.22500E+00  0.22500E+00 -0.45000E+00  0.00000E+00  0.00000E+00  0.00000E+00    0.17605E+02  0.23009E+02 -0.40614E+02 -0.27576E+01  0.11292E+01 -0.95883E+01      982.00
  0.46074E+00  0.63970E+02    0.23750E+00  0.23750E+00 -0.47500E+00  0.00000E+00  0.00000E+00  0.00000E+00    0.17596E+02  0.23247E+02 -0.40843E+02 -0.24914E+01  0.13369E+01 -0.98489E+01      982.00
  0.48468E+00  0.64399E+02    0.25000E+00  0.25000E+00 -0.50000E+00  0.00000E+00  0.00000E+00  0.00000E+00    0.17600E+02  0.23466E+02 -0.41065E+02 -0.22465E+01  0.15159E+01 -0.10085E+02      982.00
  0.50859E+00  0.64808E+02    0.26250E+00  0.26250E+00 -0.52500E+00  0.00000E+00  0.00000E+00  0.00000E+00    0.17604E+02  0.23676E+02 -0.41281E+02 -0.20145E+01  0.16815E+01 -0.10288E+02      982.00
  0.53248E+00  0.65197E+02    0.27500E+00  0.27500E+00 -0.55000E+00  0.00000E+00  0.00000E+00  0.00000E+00    0.17620E+02  0.23868E+02 -0.41488E+02 -0.18021E+01  0.18208E+01 -0.10470E+02      982.00
  0.55634E+00  0.65564E+02    0.28750E+00  0.28750E+00 -0.57500E+00  0.00000E+00  0.00000E+00  0.00000E+00    0.17641E+02  0.24045E+02 -0.41686E+02 -0.16051E+01  0.19414E+01 -0.10628E+02      982.00
  0.58019E+00  0.65907E+02    0.30000E+00  0.30000E+00 -0.60000E+00  0.00000E+00  0.00000E+00  0.00000E+00    0.17663E+02  0.24213E+02 -0.41875E+02 -0.14201E+01  0.20485E+01 -0.10761E+02      982.00
  0.60401E+00  0.66230E+02    0.31250E+00  0.31250E+00 -0.62500E+00  0.00000E+00  0.00000E+00  0.00000E+00    0.17692E+02  0.24364E+02 -0.42056E+02 -0.12502E+01  0.21369E+01 -0.10879E+02      982.00
  0.62782E+00  0.66532E+02    0.32500E+00  0.32500E+00 -0.65000E+00  0.00000E+00  0.00000E+00  0.00000E+00    0.17724E+02  0.24504E+02 -0.42227E+02 -0.10921E+01  0.22117E+01 -0.10979E+02      982.00
  0.65162E+00  0.66813E+02    0.33750E+00  0.33750E+00 -0.67500E+00  0.00000E+00  0.00000E+00  0.00000E+00    0.17758E+02  0.24632E+02 -0.42390E+02 -0.94462E+00  0.22746E+01 -0.11064E+02      982.00
  0.67542E+00  0.67070E+02    0.35000E+00  0.35000E+00 -0.70000E+00  0.00000E+00  0.00000E+00  0.00000E+00    0.17791E+02  0.24751E+02 -0.42543E+02 -0.80382E+00  0.23290E+01 -0.11129E+02      982.00
  0.69920E+00  0.67313E+02    0.36250E+00  0.36250E+00 -0.72500E+00  0.00000E+00  0.00000E+00  0.00000E+00    0.17829E+02  0.24860E+02 -0.42689E+02 -0.67451E+00  0.23723E+01 -0.11187E+02      982.00
  0.72299E+00  0.67540E+02    0.37500E+00  0.37500E+00 -0.75000E+00  0.00000E+00  0.00000E+00  0.00000E+00    0.17868E+02  0.24959E+02 -0.42828E+02 -0.55324E+00  0.24076E+01 -0.11234E+02      982.00
  0.74676E+00  0.67750E+02    0.38750E+00  0.38750E+00 -0.77500E+00  0.00000E+00  0.00000E+00  0.00000E+00    0.17908E+02  0.25051E+02 -0.42959E+02 -0.43922E+00  0.24360E+01 -0.11272E+02      982.00
  0.77054E+00  0.67945E+02    0.40000E+00  0.40000E+00 -0.80000E+00  0.00000E+00  0.00000E+00  0.00000E+00    0.17948E+02  0.25134E+02 -0.43082E+02 -0.33179E+00  0.24584E+01 -0.11300E+02      982.00
  0.79432E+00  0.68136E+02    0.41250E+00  0.41250E+00 -0.82500E+00  0.00000E+00  0.00000E+00  0.00000E+00    0.17991E+02  0.25214E+02 -0.43206E+02 -0.23369E+00  0.24734E+01 -0.11324E+02      982.00
  0.81810E+00  0.68303E+02    0.42500E+00  0.42500E+00 -0.85000E+00  0.00000E+00  0.00000E+00  0.00000E+00    0.18031E+02  0.25285E+02 -0.43316E+02 -0.13780E+00  0.24863E+01 -0.11338E+02      982.00
  0.84188E+00  0.68458E+02    0.43750E+00  0.43750E+00 -0.87500E+00  0.00000E+00  0.00000E+00  0.00000E+00    0.18072E+02  0.25349E+02 -0.43420E+02 -0.46827E-01  0.24955E+01 -0.11345E+02      982.00
  0.86567E+00  0.68602E+02    0.45000E+00  0.45000E+00 -0.90000E+00  0.00000E+00  0.00000E+00  0.00000E+00    0.18112E+02  0.25407E+02 -0.43519E+02  0.39511E-01  0.25012E+01 -0.11348E+02      982.00
  0.88945E+00  0.68735E+02    0.46250E+00  0.46250E+00 -0.92500E+00  0.00000E+00  0.00000E+00  0.00000E+00    0.18151E+02  0.25460E+02 -0.43612E+02  0.12158E+00  0.25041E+01 -0.11345E+02      982.00
  0.91325E+00  0.68804E+02    0.47500E+00  0.47500E+00 -0.95000E+00  0.00000E+00  0.00000E+00  0.00000E+00    0.18184E+02  0.25484E+02 -0.43668E+02  0.18938E+00  0.24909E+01 -0.11326E+02      982.00
  0.93705E+00  0.68868E+02    0.48750E+00  0.48750E+00 -0.97500E+00  0.00000E+00  0.00000E+00  0.00000E+00    0.18214E+02  0.25507E+02 -0.43721E+02  0.25578E+00  0.24793E+01 -0.11303E+02      982.00
  0.96086E+00  0.68927E+02    0.50000E+00  0.50000E+00 -0.10000E+01  0.00000E+00  0.00000E+00  0.00000E+00    0.18245E+02  0.25527E+02 -0.43772E+02  0.31906E+00  0.24670E+01 -0.11279E+02      982.00
