          Evm          Svm            E11          E22          E33          E23          E13          E12         SDEV11       SDEV22       SDEV33       SDEV23       SDEV13       SDEV12      TEMP
  0.00000E+00  0.54532E+02    0.00000E+00  0.00000E+00  0.00000E+00  0.00000E+00  0.00000E+00  0.00000E+00    0.19283E+02  0.13611E+02 -0.32894E+02 -0.17945E+01  0.48421E+01  0.12042E+02      982.00
  0.22620E-01  0.54449E+02    0.12500E-01  0.12500E-01 -0.25000E-01  0.00000E+00  0.00000E+00  0.00000E+00    0.19147E+02  0.13756E+02 -0.32904E+02 -0.19776E+01  0.44557E+01  0.12051E+02      982.00
  0.45282E-01  0.54425E+02    0.25000E-01  0.25000E-01 -0.50000E-01  0.00000E+00  0.00000E+00  0.00000E+00    0.19007E+02  0.13921E+02 -0.32929E+02 -0.21300E+01  0.41009E+01  0.12096E+02      982.00
  0.67970E-01  0.54501E+02    0.37500E-01  0.37500E-01 -0.75000E-01  0.00000E+00  0.00000E+00  0.00000E+00    0.18898E+02  0.14090E+02 -0.32989E+02 -0.22540E+01  0.37839E+01  0.12196E+02      982.00
  0.90669E-01  0.54707E+02    0.50000E-01  0.50000E-01 -0.10000E+00  0.00000E+00  0.00000E+00  0.00000E+00    0.18862E+02  0.14237E+02 -0.33099E+02 -0.23556E+01  0.35160E+01  0.12357E+02      982.00
  0.11336E+00  0.55031E+02    0.62500E-01  0.62500E-01 -0.12500E+00  0.00000E+00  0.00000E+00  0.00000E+00    0.18899E+02  0.14359E+02 -0.33258E+02 -0.24401E+01  0.32924E+01  0.12568E+02      982.00
  0.13602E+00  0.55452E+02    0.75000E-01  0.75000E-01 -0.15000E+00  0.00000E+00  0.00000E+00  0.00000E+00    0.18993E+02  0.14466E+02 -0.33459E+02 -0.25112E+01  0.31049E+01  0.12817E+02      982.00
  0.15865E+00  0.55922E+02    0.87500E-01  0.87500E-01 -0.17500E+00  0.00000E+00  0.00000E+00  0.00000E+00    0.19120E+02  0.14563E+02 -0.33684E+02 -0.25705E+01  0.29352E+01  0.13079E+02      982.00
  0.18123E+00  0.56426E+02    0.10000E+00  0.10000E+00 -0.20000E+00  0.00000E+00  0.00000E+00  0.00000E+00    0.19274E+02  0.14649E+02 -0.33923E+02 -0.26165E+01  0.28094E+01  0.13347E+02      982.00
  0.20378E+00  0.56949E+02    0.11250E+00  0.11250E+00 -0.22500E+00  0.00000E+00  0.00000E+00  0.00000E+00    0.19437E+02  0.14735E+02 -0.34172E+02 -0.26513E+01  0.27109E+01  0.13616E+02      982.00
  0.22628E+00  0.57475E+02    0.12500E+00  0.12500E+00 -0.25000E+00  0.00000E+00  0.00000E+00  0.00000E+00    0.19600E+02  0.14822E+02 -0.34423E+02 -0.26752E+01  0.26367E+01  0.13878E+02      982.00
  0.24874E+00  0.57991E+02    0.13750E+00  0.13750E+00 -0.27500E+00  0.00000E+00  0.00000E+00  0.00000E+00    0.19757E+02  0.14914E+02 -0.34670E+02 -0.26883E+01  0.25838E+01  0.14131E+02      982.00
  0.27116E+00  0.58474E+02    0.15000E+00  0.15000E+00 -0.30000E+00  0.00000E+00  0.00000E+00  0.00000E+00    0.19898E+02  0.15004E+02 -0.34901E+02 -0.26940E+01  0.25362E+01  0.14369E+02      982.00
  0.29354E+00  0.58951E+02    0.16250E+00  0.16250E+00 -0.32500E+00  0.00000E+00  0.00000E+00  0.00000E+00    0.20030E+02  0.15102E+02 -0.35132E+02 -0.26867E+01  0.25191E+01  0.14597E+02      982.00
  0.31589E+00  0.59405E+02    0.17500E+00  0.17500E+00 -0.35000E+00  0.00000E+00  0.00000E+00  0.00000E+00    0.20147E+02  0.15204E+02 -0.35352E+02 -0.26704E+01  0.25155E+01  0.14813E+02      982.00
  0.33821E+00  0.59834E+02    0.18750E+00  0.18750E+00 -0.37500E+00  0.00000E+00  0.00000E+00  0.00000E+00    0.20250E+02  0.15310E+02 -0.35560E+02 -0.26465E+01  0.25227E+01  0.15018E+02      982.00
  0.36049E+00  0.60240E+02    0.20000E+00  0.20000E+00 -0.40000E+00  0.00000E+00  0.00000E+00  0.00000E+00    0.20336E+02  0.15418E+02 -0.35755E+02 -0.26160E+01  0.25384E+01  0.15214E+02      982.00
  0.38275E+00  0.60621E+02    0.21250E+00  0.21250E+00 -0.42500E+00  0.00000E+00  0.00000E+00  0.00000E+00    0.20407E+02  0.15530E+02 -0.35937E+02 -0.25805E+01  0.25602E+01  0.15402E+02      982.00
  0.40498E+00  0.60981E+02    0.22500E+00  0.22500E+00 -0.45000E+00  0.00000E+00  0.00000E+00  0.00000E+00    0.20463E+02  0.15644E+02 -0.36107E+02 -0.25415E+01  0.25860E+01  0.15582E+02      982.00
  0.42719E+00  0.61319E+02    0.23750E+00  0.23750E+00 -0.47500E+00  0.00000E+00  0.00000E+00  0.00000E+00    0.20503E+02  0.15761E+02 -0.36265E+02 -0.25009E+01  0.26132E+01  0.15758E+02      982.00
  0.44936E+00  0.61638E+02    0.25000E+00  0.25000E+00 -0.50000E+00  0.00000E+00  0.00000E+00  0.00000E+00    0.20529E+02  0.15882E+02 -0.36410E+02 -0.24605E+01  0.26394E+01  0.15928E+02      982.00
  0.47152E+00  0.61945E+02    0.26250E+00  0.26250E+00 -0.52500E+00  0.00000E+00  0.00000E+00  0.00000E+00    0.20543E+02  0.16005E+02 -0.36548E+02 -0.24219E+01  0.26640E+01  0.16097E+02      982.00
  0.49364E+00  0.62217E+02    0.27500E+00  0.27500E+00 -0.55000E+00  0.00000E+00  0.00000E+00  0.00000E+00    0.20535E+02  0.16132E+02 -0.36667E+02 -0.23887E+01  0.26787E+01  0.16256E+02      982.00
  0.51574E+00  0.62484E+02    0.28750E+00  0.28750E+00 -0.57500E+00  0.00000E+00  0.00000E+00  0.00000E+00    0.20518E+02  0.16263E+02 -0.36781E+02 -0.23615E+01  0.26873E+01  0.16415E+02      982.00
  0.53782E+00  0.62729E+02    0.30000E+00  0.30000E+00 -0.60000E+00  0.00000E+00  0.00000E+00  0.00000E+00    0.20490E+02  0.16393E+02 -0.36884E+02 -0.23405E+01  0.26885E+01  0.16565E+02      982.00
  0.55986E+00  0.62965E+02    0.31250E+00  0.31250E+00 -0.62500E+00  0.00000E+00  0.00000E+00  0.00000E+00    0.20449E+02  0.16531E+02 -0.36980E+02 -0.23298E+01  0.26761E+01  0.16718E+02      982.00
  0.58189E+00  0.63188E+02    0.32500E+00  0.32500E+00 -0.65000E+00  0.00000E+00  0.00000E+00  0.00000E+00    0.20396E+02  0.16671E+02 -0.37068E+02 -0.23283E+01  0.26517E+01  0.16866E+02      982.00
  0.60389E+00  0.63396E+02    0.33750E+00  0.33750E+00 -0.67500E+00  0.00000E+00  0.00000E+00  0.00000E+00    0.20335E+02  0.16813E+02 -0.37148E+02 -0.23351E+01  0.26161E+01  0.17008E+02      982.00
  0.62586E+00  0.63611E+02    0.35000E+00  0.35000E+00 -0.70000E+00  0.00000E+00  0.00000E+00  0.00000E+00    0.20277E+02  0.16953E+02 -0.37231E+02 -0.23455E+01  0.25773E+01  0.17155E+02      982.00
  0.64781E+00  0.63789E+02    0.36250E+00  0.36250E+00 -0.72500E+00  0.00000E+00  0.00000E+00  0.00000E+00    0.20205E+02  0.17094E+02 -0.37299E+02 -0.23621E+01  0.25263E+01  0.17279E+02      982.00
  0.66974E+00  0.63972E+02    0.37500E+00  0.37500E+00 -0.75000E+00  0.00000E+00  0.00000E+00  0.00000E+00    0.20141E+02  0.17229E+02 -0.37370E+02 -0.23753E+01  0.24807E+01  0.17402E+02      982.00
  0.69164E+00  0.64125E+02    0.38750E+00  0.38750E+00 -0.77500E+00  0.00000E+00  0.00000E+00  0.00000E+00    0.20067E+02  0.17363E+02 -0.37429E+02 -0.23938E+01  0.24243E+01  0.17507E+02      982.00
  0.71353E+00  0.64267E+02    0.40000E+00  0.40000E+00 -0.80000E+00  0.00000E+00  0.00000E+00  0.00000E+00    0.19994E+02  0.17492E+02 -0.37486E+02 -0.24111E+01  0.23679E+01  0.17603E+02      982.00
  0.73540E+00  0.64400E+02    0.41250E+00  0.41250E+00 -0.82500E+00  0.00000E+00  0.00000E+00  0.00000E+00    0.19926E+02  0.17614E+02 -0.37540E+02 -0.24256E+01  0.23136E+01  0.17690E+02      982.00
  0.75726E+00  0.64523E+02    0.42500E+00  0.42500E+00 -0.85000E+00  0.00000E+00  0.00000E+00  0.00000E+00    0.19862E+02  0.17730E+02 -0.37592E+02 -0.24365E+01  0.22626E+01  0.17768E+02      982.00
  0.77911E+00  0.64650E+02    0.43750E+00  0.43750E+00 -0.87500E+00  0.00000E+00  0.00000E+00  0.00000E+00    0.19807E+02  0.17840E+02 -0.37647E+02 -0.24469E+01  0.22112E+01  0.17844E+02      982.00
  0.80095E+00  0.64757E+02    0.45000E+00  0.45000E+00 -0.90000E+00  0.00000E+00  0.00000E+00  0.00000E+00    0.19754E+02  0.17941E+02 -0.37695E+02 -0.24501E+01  0.21682E+01  0.17906E+02      982.00
  0.82278E+00  0.64853E+02    0.46250E+00  0.46250E+00 -0.92500E+00  0.00000E+00  0.00000E+00  0.00000E+00    0.19708E+02  0.18032E+02 -0.37740E+02 -0.24515E+01  0.21231E+01  0.17959E+02      982.00
  0.84460E+00  0.64946E+02    0.47500E+00  0.47500E+00 -0.95000E+00  0.00000E+00  0.00000E+00  0.00000E+00    0.19667E+02  0.18118E+02 -0.37785E+02 -0.24475E+01  0.20884E+01  0.18008E+02      982.00
  0.86642E+00  0.64969E+02    0.48750E+00  0.48750E+00 -0.97500E+00  0.00000E+00  0.00000E+00  0.00000E+00    0.19618E+02  0.18178E+02 -0.37795E+02 -0.24325E+01  0.20450E+01  0.18027E+02      982.00
  0.88823E+00  0.65009E+02    0.50000E+00  0.50000E+00 -0.10000E+01  0.00000E+00  0.00000E+00  0.00000E+00    0.19580E+02  0.18236E+02 -0.37816E+02 -0.24162E+01  0.20140E+01  0.18051E+02      982.00
