          Evm          Svm            E11          E22          E33          E23          E13          E12         SDEV11       SDEV22       SDEV33       SDEV23       SDEV13       SDEV12      TEMP
  0.00000E+00  0.56758E+02    0.00000E+00  0.00000E+00  0.00000E+00  0.00000E+00  0.00000E+00  0.00000E+00    0.15520E+02  0.18348E+02 -0.33868E+02 -0.48515E+01  0.13938E+01  0.13640E+02      982.00
  0.22377E-01  0.56722E+02    0.12500E-01  0.12500E-01 -0.25000E-01  0.00000E+00  0.00000E+00  0.00000E+00    0.15815E+02  0.18054E+02 -0.33869E+02 -0.44525E+01  0.15626E+01  0.13733E+02      982.00
  0.44768E-01  0.56820E+02    0.25000E-01  0.25000E-01 -0.50000E-01  0.00000E+00  0.00000E+00  0.00000E+00    0.16046E+02  0.17871E+02 -0.33918E+02 -0.41409E+01  0.16714E+01  0.13878E+02      982.00
  0.67153E-01  0.57040E+02    0.37500E-01  0.37500E-01 -0.75000E-01  0.00000E+00  0.00000E+00  0.00000E+00    0.16242E+02  0.17771E+02 -0.34013E+02 -0.38751E+01  0.17478E+01  0.14078E+02      982.00
  0.89515E-01  0.57359E+02    0.50000E-01  0.50000E-01 -0.10000E+00  0.00000E+00  0.00000E+00  0.00000E+00    0.16412E+02  0.17736E+02 -0.34148E+02 -0.36438E+01  0.18021E+01  0.14323E+02      982.00
  0.11184E+00  0.57748E+02    0.62500E-01  0.62500E-01 -0.12500E+00  0.00000E+00  0.00000E+00  0.00000E+00    0.16562E+02  0.17752E+02 -0.34313E+02 -0.34419E+01  0.18383E+01  0.14594E+02      982.00
  0.13412E+00  0.58186E+02    0.75000E-01  0.75000E-01 -0.15000E+00  0.00000E+00  0.00000E+00  0.00000E+00    0.16694E+02  0.17806E+02 -0.34500E+02 -0.32688E+01  0.18534E+01  0.14880E+02      982.00
  0.15636E+00  0.58645E+02    0.87500E-01  0.87500E-01 -0.17500E+00  0.00000E+00  0.00000E+00  0.00000E+00    0.16818E+02  0.17880E+02 -0.34698E+02 -0.31128E+01  0.18624E+01  0.15166E+02      982.00
  0.17854E+00  0.59125E+02    0.10000E+00  0.10000E+00 -0.20000E+00  0.00000E+00  0.00000E+00  0.00000E+00    0.16934E+02  0.17973E+02 -0.34907E+02 -0.29832E+01  0.18582E+01  0.15453E+02      982.00
  0.20068E+00  0.59592E+02    0.11250E+00  0.11250E+00 -0.22500E+00  0.00000E+00  0.00000E+00  0.00000E+00    0.17045E+02  0.18068E+02 -0.35112E+02 -0.28635E+01  0.18518E+01  0.15722E+02      982.00
  0.22278E+00  0.60063E+02    0.12500E+00  0.12500E+00 -0.25000E+00  0.00000E+00  0.00000E+00  0.00000E+00    0.17154E+02  0.18168E+02 -0.35322E+02 -0.27696E+01  0.18392E+01  0.15983E+02      982.00
  0.24483E+00  0.60503E+02    0.13750E+00  0.13750E+00 -0.27500E+00  0.00000E+00  0.00000E+00  0.00000E+00    0.17259E+02  0.18262E+02 -0.35521E+02 -0.26789E+01  0.18256E+01  0.16222E+02      982.00
  0.26685E+00  0.60932E+02    0.15000E+00  0.15000E+00 -0.30000E+00  0.00000E+00  0.00000E+00  0.00000E+00    0.17364E+02  0.18354E+02 -0.35718E+02 -0.26128E+01  0.18111E+01  0.16443E+02      982.00
  0.28883E+00  0.61333E+02    0.16250E+00  0.16250E+00 -0.32500E+00  0.00000E+00  0.00000E+00  0.00000E+00    0.17468E+02  0.18436E+02 -0.35904E+02 -0.25444E+01  0.17952E+01  0.16649E+02      982.00
  0.31078E+00  0.61707E+02    0.17500E+00  0.17500E+00 -0.35000E+00  0.00000E+00  0.00000E+00  0.00000E+00    0.17570E+02  0.18512E+02 -0.36082E+02 -0.24987E+01  0.17820E+01  0.16827E+02      982.00
  0.33271E+00  0.62051E+02    0.18750E+00  0.18750E+00 -0.37500E+00  0.00000E+00  0.00000E+00  0.00000E+00    0.17671E+02  0.18579E+02 -0.36250E+02 -0.24602E+01  0.17694E+01  0.16986E+02      982.00
  0.35462E+00  0.62380E+02    0.20000E+00  0.20000E+00 -0.40000E+00  0.00000E+00  0.00000E+00  0.00000E+00    0.17774E+02  0.18635E+02 -0.36409E+02 -0.24155E+01  0.17543E+01  0.17140E+02      982.00
  0.37651E+00  0.62669E+02    0.21250E+00  0.21250E+00 -0.42500E+00  0.00000E+00  0.00000E+00  0.00000E+00    0.17871E+02  0.18684E+02 -0.36555E+02 -0.23879E+01  0.17441E+01  0.17263E+02      982.00
  0.39838E+00  0.62933E+02    0.22500E+00  0.22500E+00 -0.45000E+00  0.00000E+00  0.00000E+00  0.00000E+00    0.17965E+02  0.18726E+02 -0.36691E+02 -0.23648E+01  0.17346E+01  0.17371E+02      982.00
  0.42024E+00  0.63172E+02    0.23750E+00  0.23750E+00 -0.47500E+00  0.00000E+00  0.00000E+00  0.00000E+00    0.18055E+02  0.18761E+02 -0.36816E+02 -0.23437E+01  0.17256E+01  0.17467E+02      982.00
  0.44210E+00  0.63393E+02    0.25000E+00  0.25000E+00 -0.50000E+00  0.00000E+00  0.00000E+00  0.00000E+00    0.18144E+02  0.18790E+02 -0.36933E+02 -0.23261E+01  0.17175E+01  0.17551E+02      982.00
  0.46395E+00  0.63558E+02    0.26250E+00  0.26250E+00 -0.52500E+00  0.00000E+00  0.00000E+00  0.00000E+00    0.18216E+02  0.18806E+02 -0.37023E+02 -0.23122E+01  0.17109E+01  0.17612E+02      982.00
  0.48579E+00  0.63770E+02    0.27500E+00  0.27500E+00 -0.55000E+00  0.00000E+00  0.00000E+00  0.00000E+00    0.18315E+02  0.18819E+02 -0.37135E+02 -0.22919E+01  0.17016E+01  0.17694E+02      982.00
  0.50763E+00  0.63938E+02    0.28750E+00  0.28750E+00 -0.57500E+00  0.00000E+00  0.00000E+00  0.00000E+00    0.18398E+02  0.18831E+02 -0.37229E+02 -0.22792E+01  0.16955E+01  0.17751E+02      982.00
  0.52946E+00  0.64092E+02    0.30000E+00  0.30000E+00 -0.60000E+00  0.00000E+00  0.00000E+00  0.00000E+00    0.18476E+02  0.18840E+02 -0.37316E+02 -0.22683E+01  0.16898E+01  0.17801E+02      982.00
  0.55129E+00  0.64233E+02    0.31250E+00  0.31250E+00 -0.62500E+00  0.00000E+00  0.00000E+00  0.00000E+00    0.18552E+02  0.18845E+02 -0.37397E+02 -0.22585E+01  0.16844E+01  0.17846E+02      982.00
  0.57313E+00  0.64363E+02    0.32500E+00  0.32500E+00 -0.65000E+00  0.00000E+00  0.00000E+00  0.00000E+00    0.18625E+02  0.18847E+02 -0.37472E+02 -0.22495E+01  0.16794E+01  0.17885E+02      982.00
  0.59496E+00  0.64482E+02    0.33750E+00  0.33750E+00 -0.67500E+00  0.00000E+00  0.00000E+00  0.00000E+00    0.18695E+02  0.18846E+02 -0.37541E+02 -0.22414E+01  0.16747E+01  0.17920E+02      982.00
  0.61679E+00  0.64592E+02    0.35000E+00  0.35000E+00 -0.70000E+00  0.00000E+00  0.00000E+00  0.00000E+00    0.18763E+02  0.18843E+02 -0.37606E+02 -0.22339E+01  0.16704E+01  0.17952E+02      982.00
  0.63862E+00  0.64693E+02    0.36250E+00  0.36250E+00 -0.72500E+00  0.00000E+00  0.00000E+00  0.00000E+00    0.18829E+02  0.18838E+02 -0.37666E+02 -0.22270E+01  0.16664E+01  0.17979E+02      982.00
  0.66046E+00  0.64786E+02    0.37500E+00  0.37500E+00 -0.75000E+00  0.00000E+00  0.00000E+00  0.00000E+00    0.18892E+02  0.18831E+02 -0.37723E+02 -0.22207E+01  0.16627E+01  0.18004E+02      982.00
  0.68229E+00  0.64872E+02    0.38750E+00  0.38750E+00 -0.77500E+00  0.00000E+00  0.00000E+00  0.00000E+00    0.18953E+02  0.18822E+02 -0.37775E+02 -0.22149E+01  0.16592E+01  0.18026E+02      982.00
  0.70413E+00  0.64923E+02    0.40000E+00  0.40000E+00 -0.80000E+00  0.00000E+00  0.00000E+00  0.00000E+00    0.18997E+02  0.18809E+02 -0.37806E+02 -0.22119E+01  0.16577E+01  0.18039E+02      982.00
  0.72597E+00  0.65016E+02    0.41250E+00  0.41250E+00 -0.82500E+00  0.00000E+00  0.00000E+00  0.00000E+00    0.19077E+02  0.18784E+02 -0.37861E+02 -0.22038E+01  0.16534E+01  0.18064E+02      982.00
  0.74780E+00  0.65087E+02    0.42500E+00  0.42500E+00 -0.85000E+00  0.00000E+00  0.00000E+00  0.00000E+00    0.19134E+02  0.18771E+02 -0.37905E+02 -0.21982E+01  0.16509E+01  0.18080E+02      982.00
  0.76964E+00  0.65150E+02    0.43750E+00  0.43750E+00 -0.87500E+00  0.00000E+00  0.00000E+00  0.00000E+00    0.19187E+02  0.18758E+02 -0.37945E+02 -0.21938E+01  0.16486E+01  0.18094E+02      982.00
  0.79148E+00  0.65209E+02    0.45000E+00  0.45000E+00 -0.90000E+00  0.00000E+00  0.00000E+00  0.00000E+00    0.19238E+02  0.18744E+02 -0.37982E+02 -0.21900E+01  0.16464E+01  0.18107E+02      982.00
  0.81333E+00  0.65264E+02    0.46250E+00  0.46250E+00 -0.92500E+00  0.00000E+00  0.00000E+00  0.00000E+00    0.19287E+02  0.18730E+02 -0.38017E+02 -0.21866E+01  0.16444E+01  0.18119E+02      982.00
  0.83517E+00  0.65316E+02    0.47500E+00  0.47500E+00 -0.95000E+00  0.00000E+00  0.00000E+00  0.00000E+00    0.19334E+02  0.18715E+02 -0.38049E+02 -0.21835E+01  0.16425E+01  0.18130E+02      982.00
  0.85702E+00  0.65364E+02    0.48750E+00  0.48750E+00 -0.97500E+00  0.00000E+00  0.00000E+00  0.00000E+00    0.19380E+02  0.18699E+02 -0.38080E+02 -0.21808E+01  0.16409E+01  0.18140E+02      982.00
  0.87886E+00  0.65372E+02    0.50000E+00  0.50000E+00 -0.10000E+01  0.00000E+00  0.00000E+00  0.00000E+00    0.19365E+02  0.18717E+02 -0.38082E+02 -0.21801E+01  0.16445E+01  0.18146E+02      982.00
