          Evm          Svm            E11          E22          E33          E23          E13          E12         SDEV11       SDEV22       SDEV33       SDEV23       SDEV13       SDEV12      TEMP
  0.00000E+00  0.56268E+02    0.00000E+00  0.00000E+00  0.00000E+00  0.00000E+00  0.00000E+00  0.00000E+00    0.20686E+02  0.14029E+02 -0.34715E+02 -0.67022E+00  0.48829E+01  0.10775E+02      982.00
  0.23136E-01  0.56336E+02    0.12500E-01  0.12500E-01 -0.25000E-01  0.00000E+00  0.00000E+00  0.00000E+00    0.20191E+02  0.14544E+02 -0.34735E+02 -0.91265E+00  0.45377E+01  0.11118E+02      982.00
  0.46258E-01  0.56475E+02    0.25000E-01  0.25000E-01 -0.50000E-01  0.00000E+00  0.00000E+00  0.00000E+00    0.19719E+02  0.15057E+02 -0.34776E+02 -0.11261E+01  0.42232E+01  0.11471E+02      982.00
  0.69349E-01  0.56682E+02    0.37500E-01  0.37500E-01 -0.75000E-01  0.00000E+00  0.00000E+00  0.00000E+00    0.19320E+02  0.15515E+02 -0.34835E+02 -0.13033E+01  0.39493E+01  0.11828E+02      982.00
  0.92396E-01  0.56966E+02    0.50000E-01  0.50000E-01 -0.10000E+00  0.00000E+00  0.00000E+00  0.00000E+00    0.19027E+02  0.15894E+02 -0.34921E+02 -0.14429E+01  0.37170E+01  0.12196E+02      982.00
  0.11538E+00  0.57322E+02    0.62500E-01  0.62500E-01 -0.12500E+00  0.00000E+00  0.00000E+00  0.00000E+00    0.18839E+02  0.16196E+02 -0.35035E+02 -0.15507E+01  0.35183E+01  0.12575E+02      982.00
  0.13830E+00  0.57733E+02    0.75000E-01  0.75000E-01 -0.15000E+00  0.00000E+00  0.00000E+00  0.00000E+00    0.18736E+02  0.16437E+02 -0.35173E+02 -0.16326E+01  0.33464E+01  0.12961E+02      982.00
  0.16115E+00  0.58179E+02    0.87500E-01  0.87500E-01 -0.17500E+00  0.00000E+00  0.00000E+00  0.00000E+00    0.18698E+02  0.16629E+02 -0.35327E+02 -0.16940E+01  0.31967E+01  0.13345E+02      982.00
  0.18392E+00  0.58643E+02    0.10000E+00  0.10000E+00 -0.20000E+00  0.00000E+00  0.00000E+00  0.00000E+00    0.18703E+02  0.16789E+02 -0.35492E+02 -0.17402E+01  0.30660E+01  0.13721E+02      982.00
  0.20662E+00  0.59110E+02    0.11250E+00  0.11250E+00 -0.22500E+00  0.00000E+00  0.00000E+00  0.00000E+00    0.18734E+02  0.16926E+02 -0.35660E+02 -0.17760E+01  0.29512E+01  0.14081E+02      982.00
  0.22924E+00  0.59569E+02    0.12500E+00  0.12500E+00 -0.25000E+00  0.00000E+00  0.00000E+00  0.00000E+00    0.18779E+02  0.17050E+02 -0.35828E+02 -0.18055E+01  0.28490E+01  0.14421E+02      982.00
  0.25179E+00  0.60010E+02    0.13750E+00  0.13750E+00 -0.27500E+00  0.00000E+00  0.00000E+00  0.00000E+00    0.18826E+02  0.17167E+02 -0.35992E+02 -0.18298E+01  0.27602E+01  0.14737E+02      982.00
  0.27429E+00  0.60440E+02    0.15000E+00  0.15000E+00 -0.30000E+00  0.00000E+00  0.00000E+00  0.00000E+00    0.18873E+02  0.17279E+02 -0.36152E+02 -0.18492E+01  0.26825E+01  0.15039E+02      982.00
  0.29672E+00  0.60846E+02    0.16250E+00  0.16250E+00 -0.32500E+00  0.00000E+00  0.00000E+00  0.00000E+00    0.18911E+02  0.17392E+02 -0.36304E+02 -0.18688E+01  0.26120E+01  0.15320E+02      982.00
  0.31909E+00  0.61226E+02    0.17500E+00  0.17500E+00 -0.35000E+00  0.00000E+00  0.00000E+00  0.00000E+00    0.18940E+02  0.17506E+02 -0.36446E+02 -0.18893E+01  0.25471E+01  0.15579E+02      982.00
  0.34141E+00  0.61580E+02    0.18750E+00  0.18750E+00 -0.37500E+00  0.00000E+00  0.00000E+00  0.00000E+00    0.18958E+02  0.17622E+02 -0.36579E+02 -0.19109E+01  0.24865E+01  0.15818E+02      982.00
  0.36369E+00  0.61907E+02    0.20000E+00  0.20000E+00 -0.40000E+00  0.00000E+00  0.00000E+00  0.00000E+00    0.18965E+02  0.17738E+02 -0.36703E+02 -0.19332E+01  0.24296E+01  0.16036E+02      982.00
  0.38592E+00  0.62207E+02    0.21250E+00  0.21250E+00 -0.42500E+00  0.00000E+00  0.00000E+00  0.00000E+00    0.18959E+02  0.17859E+02 -0.36818E+02 -0.19585E+01  0.23751E+01  0.16231E+02      982.00
  0.40812E+00  0.62489E+02    0.22500E+00  0.22500E+00 -0.45000E+00  0.00000E+00  0.00000E+00  0.00000E+00    0.18950E+02  0.17975E+02 -0.36925E+02 -0.19807E+01  0.23248E+01  0.16415E+02      982.00
  0.43028E+00  0.62748E+02    0.23750E+00  0.23750E+00 -0.47500E+00  0.00000E+00  0.00000E+00  0.00000E+00    0.18935E+02  0.18089E+02 -0.37024E+02 -0.20018E+01  0.22778E+01  0.16583E+02      982.00
  0.45240E+00  0.62988E+02    0.25000E+00  0.25000E+00 -0.50000E+00  0.00000E+00  0.00000E+00  0.00000E+00    0.18916E+02  0.18201E+02 -0.37117E+02 -0.20210E+01  0.22342E+01  0.16734E+02      982.00
  0.47450E+00  0.63208E+02    0.26250E+00  0.26250E+00 -0.52500E+00  0.00000E+00  0.00000E+00  0.00000E+00    0.18894E+02  0.18308E+02 -0.37202E+02 -0.20384E+01  0.21939E+01  0.16873E+02      982.00
  0.49657E+00  0.63391E+02    0.27500E+00  0.27500E+00 -0.55000E+00  0.00000E+00  0.00000E+00  0.00000E+00    0.18860E+02  0.18414E+02 -0.37274E+02 -0.20566E+01  0.21503E+01  0.16987E+02      982.00
  0.51862E+00  0.63581E+02    0.28750E+00  0.28750E+00 -0.57500E+00  0.00000E+00  0.00000E+00  0.00000E+00    0.18836E+02  0.18513E+02 -0.37349E+02 -0.20693E+01  0.21168E+01  0.17103E+02      982.00
  0.54065E+00  0.63756E+02    0.30000E+00  0.30000E+00 -0.60000E+00  0.00000E+00  0.00000E+00  0.00000E+00    0.18813E+02  0.18606E+02 -0.37420E+02 -0.20793E+01  0.20868E+01  0.17208E+02      982.00
  0.56266E+00  0.63896E+02    0.31250E+00  0.31250E+00 -0.62500E+00  0.00000E+00  0.00000E+00  0.00000E+00    0.18782E+02  0.18696E+02 -0.37478E+02 -0.20875E+01  0.20553E+01  0.17288E+02      982.00
  0.58465E+00  0.64049E+02    0.32500E+00  0.32500E+00 -0.65000E+00  0.00000E+00  0.00000E+00  0.00000E+00    0.18762E+02  0.18779E+02 -0.37541E+02 -0.20931E+01  0.20310E+01  0.17376E+02      982.00
  0.60663E+00  0.64190E+02    0.33750E+00  0.33750E+00 -0.67500E+00  0.00000E+00  0.00000E+00  0.00000E+00    0.18744E+02  0.18856E+02 -0.37600E+02 -0.20968E+01  0.20095E+01  0.17455E+02      982.00
  0.62860E+00  0.64320E+02    0.35000E+00  0.35000E+00 -0.70000E+00  0.00000E+00  0.00000E+00  0.00000E+00    0.18727E+02  0.18929E+02 -0.37655E+02 -0.20991E+01  0.19901E+01  0.17527E+02      982.00
  0.65055E+00  0.64441E+02    0.36250E+00  0.36250E+00 -0.72500E+00  0.00000E+00  0.00000E+00  0.00000E+00    0.18711E+02  0.18996E+02 -0.37707E+02 -0.21000E+01  0.19727E+01  0.17593E+02      982.00
  0.67250E+00  0.64553E+02    0.37500E+00  0.37500E+00 -0.75000E+00  0.00000E+00  0.00000E+00  0.00000E+00    0.18698E+02  0.19058E+02 -0.37756E+02 -0.20999E+01  0.19571E+01  0.17652E+02      982.00
  0.69443E+00  0.64624E+02    0.38750E+00  0.38750E+00 -0.77500E+00  0.00000E+00  0.00000E+00  0.00000E+00    0.18673E+02  0.19114E+02 -0.37787E+02 -0.20985E+01  0.19358E+01  0.17692E+02      982.00
  0.71636E+00  0.64725E+02    0.40000E+00  0.40000E+00 -0.80000E+00  0.00000E+00  0.00000E+00  0.00000E+00    0.18664E+02  0.19167E+02 -0.37832E+02 -0.20972E+01  0.19231E+01  0.17744E+02      982.00
  0.73828E+00  0.64815E+02    0.41250E+00  0.41250E+00 -0.82500E+00  0.00000E+00  0.00000E+00  0.00000E+00    0.18657E+02  0.19216E+02 -0.37873E+02 -0.20949E+01  0.19119E+01  0.17789E+02      982.00
  0.76019E+00  0.64899E+02    0.42500E+00  0.42500E+00 -0.85000E+00  0.00000E+00  0.00000E+00  0.00000E+00    0.18652E+02  0.19260E+02 -0.37912E+02 -0.20922E+01  0.19018E+01  0.17830E+02      982.00
  0.78209E+00  0.64966E+02    0.43750E+00  0.43750E+00 -0.87500E+00  0.00000E+00  0.00000E+00  0.00000E+00    0.18638E+02  0.19303E+02 -0.37942E+02 -0.20882E+01  0.18861E+01  0.17865E+02      982.00
  0.80399E+00  0.65043E+02    0.45000E+00  0.45000E+00 -0.90000E+00  0.00000E+00  0.00000E+00  0.00000E+00    0.18638E+02  0.19340E+02 -0.37978E+02 -0.20857E+01  0.18772E+01  0.17901E+02      982.00
  0.82589E+00  0.65125E+02    0.46250E+00  0.46250E+00 -0.92500E+00  0.00000E+00  0.00000E+00  0.00000E+00    0.18632E+02  0.19384E+02 -0.38016E+02 -0.20808E+01  0.18624E+01  0.17942E+02      982.00
  0.84778E+00  0.65189E+02    0.47500E+00  0.47500E+00 -0.95000E+00  0.00000E+00  0.00000E+00  0.00000E+00    0.18634E+02  0.19413E+02 -0.38047E+02 -0.20777E+01  0.18538E+01  0.17971E+02      982.00
  0.86967E+00  0.65246E+02    0.48750E+00  0.48750E+00 -0.97500E+00  0.00000E+00  0.00000E+00  0.00000E+00    0.18638E+02  0.19437E+02 -0.38075E+02 -0.20750E+01  0.18471E+01  0.17996E+02      982.00
  0.89155E+00  0.65251E+02    0.50000E+00  0.50000E+00 -0.10000E+01  0.00000E+00  0.00000E+00  0.00000E+00    0.18643E+02  0.19435E+02 -0.38078E+02 -0.20812E+01  0.18503E+01  0.17996E+02      982.00
