          Evm          Svm            E11          E22          E33          E23          E13          E12         SDEV11       SDEV22       SDEV33       SDEV23       SDEV13       SDEV12      TEMP
  0.00000E+00  0.54416E+02    0.00000E+00  0.00000E+00  0.00000E+00  0.00000E+00  0.00000E+00  0.00000E+00    0.12793E+02  0.20306E+02 -0.33099E+02 -0.66303E+01 -0.49992E+01 -0.90723E+01      982.00
  0.22810E-01  0.54866E+02    0.12500E-01  0.12500E-01 -0.25000E-01  0.00000E+00  0.00000E+00  0.00000E+00    0.13222E+02  0.20136E+02 -0.33358E+02 -0.67999E+01 -0.50726E+01 -0.92169E+01      982.00
  0.45609E-01  0.55279E+02    0.25000E-01  0.25000E-01 -0.50000E-01  0.00000E+00  0.00000E+00  0.00000E+00    0.13565E+02  0.20054E+02 -0.33619E+02 -0.69020E+01 -0.50983E+01 -0.93150E+01      982.00
  0.68415E-01  0.55679E+02    0.37500E-01  0.37500E-01 -0.75000E-01  0.00000E+00  0.00000E+00  0.00000E+00    0.13859E+02  0.20026E+02 -0.33885E+02 -0.69594E+01 -0.51046E+01 -0.93939E+01      982.00
  0.91237E-01  0.56074E+02    0.50000E-01  0.50000E-01 -0.10000E+00  0.00000E+00  0.00000E+00  0.00000E+00    0.14111E+02  0.20045E+02 -0.34157E+02 -0.69817E+01 -0.50965E+01 -0.94629E+01      982.00
  0.11408E+00  0.56470E+02    0.62500E-01  0.62500E-01 -0.12500E+00  0.00000E+00  0.00000E+00  0.00000E+00    0.14329E+02  0.20106E+02 -0.34435E+02 -0.69775E+01 -0.50776E+01 -0.95294E+01      982.00
  0.13695E+00  0.56883E+02    0.75000E-01  0.75000E-01 -0.15000E+00  0.00000E+00  0.00000E+00  0.00000E+00    0.14522E+02  0.20202E+02 -0.34724E+02 -0.69563E+01 -0.50538E+01 -0.96065E+01      982.00
  0.15984E+00  0.57367E+02    0.87500E-01  0.87500E-01 -0.17500E+00  0.00000E+00  0.00000E+00  0.00000E+00    0.14705E+02  0.20348E+02 -0.35053E+02 -0.69240E+01 -0.50288E+01 -0.97087E+01      982.00
  0.18275E+00  0.57806E+02    0.10000E+00  0.10000E+00 -0.20000E+00  0.00000E+00  0.00000E+00  0.00000E+00    0.14855E+02  0.20510E+02 -0.35365E+02 -0.68692E+01 -0.49902E+01 -0.97845E+01      982.00
  0.20569E+00  0.58261E+02    0.11250E+00  0.11250E+00 -0.22500E+00  0.00000E+00  0.00000E+00  0.00000E+00    0.14999E+02  0.20688E+02 -0.35687E+02 -0.68083E+01 -0.49533E+01 -0.98653E+01      982.00
  0.22866E+00  0.58666E+02    0.12500E+00  0.12500E+00 -0.25000E+00  0.00000E+00  0.00000E+00  0.00000E+00    0.15143E+02  0.20840E+02 -0.35984E+02 -0.67405E+01 -0.49190E+01 -0.99192E+01      982.00
  0.25166E+00  0.59172E+02    0.13750E+00  0.13750E+00 -0.27500E+00  0.00000E+00  0.00000E+00  0.00000E+00    0.15288E+02  0.21043E+02 -0.36330E+02 -0.66747E+01 -0.48885E+01 -0.10023E+02      982.00
  0.27469E+00  0.59653E+02    0.15000E+00  0.15000E+00 -0.30000E+00  0.00000E+00  0.00000E+00  0.00000E+00    0.15440E+02  0.21228E+02 -0.36668E+02 -0.66046E+01 -0.48598E+01 -0.10107E+02      982.00
  0.29774E+00  0.60141E+02    0.16250E+00  0.16250E+00 -0.32500E+00  0.00000E+00  0.00000E+00  0.00000E+00    0.15600E+02  0.21409E+02 -0.37009E+02 -0.65367E+01 -0.48360E+01 -0.10190E+02      982.00
  0.32082E+00  0.60627E+02    0.17500E+00  0.17500E+00 -0.35000E+00  0.00000E+00  0.00000E+00  0.00000E+00    0.15767E+02  0.21583E+02 -0.37349E+02 -0.64702E+01 -0.48153E+01 -0.10270E+02      982.00
  0.34392E+00  0.61108E+02    0.18750E+00  0.18750E+00 -0.37500E+00  0.00000E+00  0.00000E+00  0.00000E+00    0.15940E+02  0.21747E+02 -0.37687E+02 -0.64057E+01 -0.47971E+01 -0.10345E+02      982.00
  0.36705E+00  0.61580E+02    0.20000E+00  0.20000E+00 -0.40000E+00  0.00000E+00  0.00000E+00  0.00000E+00    0.16120E+02  0.21900E+02 -0.38020E+02 -0.63436E+01 -0.47807E+01 -0.10414E+02      982.00
  0.39020E+00  0.62041E+02    0.21250E+00  0.21250E+00 -0.42500E+00  0.00000E+00  0.00000E+00  0.00000E+00    0.16305E+02  0.22042E+02 -0.38347E+02 -0.62842E+01 -0.47655E+01 -0.10476E+02      982.00
  0.41338E+00  0.62487E+02    0.22500E+00  0.22500E+00 -0.45000E+00  0.00000E+00  0.00000E+00  0.00000E+00    0.16494E+02  0.22171E+02 -0.38665E+02 -0.62274E+01 -0.47508E+01 -0.10532E+02      982.00
  0.43658E+00  0.62918E+02    0.23750E+00  0.23750E+00 -0.47500E+00  0.00000E+00  0.00000E+00  0.00000E+00    0.16687E+02  0.22287E+02 -0.38974E+02 -0.61732E+01 -0.47360E+01 -0.10579E+02      982.00
  0.45981E+00  0.63312E+02    0.25000E+00  0.25000E+00 -0.50000E+00  0.00000E+00  0.00000E+00  0.00000E+00    0.16865E+02  0.22394E+02 -0.39258E+02 -0.61295E+01 -0.47170E+01 -0.10619E+02      982.00
  0.48306E+00  0.63705E+02    0.26250E+00  0.26250E+00 -0.52500E+00  0.00000E+00  0.00000E+00  0.00000E+00    0.17059E+02  0.22487E+02 -0.39546E+02 -0.60784E+01 -0.46989E+01 -0.10652E+02      982.00
  0.50634E+00  0.64082E+02    0.27500E+00  0.27500E+00 -0.55000E+00  0.00000E+00  0.00000E+00  0.00000E+00    0.17253E+02  0.22570E+02 -0.39823E+02 -0.60314E+01 -0.46819E+01 -0.10679E+02      982.00
  0.52965E+00  0.64439E+02    0.28750E+00  0.28750E+00 -0.57500E+00  0.00000E+00  0.00000E+00  0.00000E+00    0.17446E+02  0.22642E+02 -0.40088E+02 -0.59864E+01 -0.46638E+01 -0.10700E+02      982.00
  0.55297E+00  0.64777E+02    0.30000E+00  0.30000E+00 -0.60000E+00  0.00000E+00  0.00000E+00  0.00000E+00    0.17639E+02  0.22703E+02 -0.40341E+02 -0.59430E+01 -0.46442E+01 -0.10715E+02      982.00
  0.57633E+00  0.65095E+02    0.31250E+00  0.31250E+00 -0.62500E+00  0.00000E+00  0.00000E+00  0.00000E+00    0.17828E+02  0.22754E+02 -0.40582E+02 -0.59012E+01 -0.46233E+01 -0.10724E+02      982.00
  0.59971E+00  0.65385E+02    0.32500E+00  0.32500E+00 -0.65000E+00  0.00000E+00  0.00000E+00  0.00000E+00    0.18020E+02  0.22785E+02 -0.40805E+02 -0.58597E+01 -0.46052E+01 -0.10726E+02      982.00
  0.62311E+00  0.65666E+02    0.33750E+00  0.33750E+00 -0.67500E+00  0.00000E+00  0.00000E+00  0.00000E+00    0.18204E+02  0.22819E+02 -0.41023E+02 -0.58198E+01 -0.45809E+01 -0.10724E+02      982.00
  0.64654E+00  0.65929E+02    0.35000E+00  0.35000E+00 -0.70000E+00  0.00000E+00  0.00000E+00  0.00000E+00    0.18383E+02  0.22845E+02 -0.41228E+02 -0.57820E+01 -0.45552E+01 -0.10719E+02      982.00
  0.66999E+00  0.66176E+02    0.36250E+00  0.36250E+00 -0.72500E+00  0.00000E+00  0.00000E+00  0.00000E+00    0.18558E+02  0.22865E+02 -0.41423E+02 -0.57456E+01 -0.45283E+01 -0.10711E+02      982.00
  0.69346E+00  0.66407E+02    0.37500E+00  0.37500E+00 -0.75000E+00  0.00000E+00  0.00000E+00  0.00000E+00    0.18729E+02  0.22878E+02 -0.41606E+02 -0.57106E+01 -0.45002E+01 -0.10699E+02      982.00
  0.71696E+00  0.66623E+02    0.38750E+00  0.38750E+00 -0.77500E+00  0.00000E+00  0.00000E+00  0.00000E+00    0.18894E+02  0.22885E+02 -0.41780E+02 -0.56770E+01 -0.44712E+01 -0.10684E+02      982.00
  0.74047E+00  0.66824E+02    0.40000E+00  0.40000E+00 -0.80000E+00  0.00000E+00  0.00000E+00  0.00000E+00    0.19055E+02  0.22888E+02 -0.41943E+02 -0.56448E+01 -0.44413E+01 -0.10668E+02      982.00
  0.76401E+00  0.67012E+02    0.41250E+00  0.41250E+00 -0.82500E+00  0.00000E+00  0.00000E+00  0.00000E+00    0.19212E+02  0.22886E+02 -0.42097E+02 -0.56140E+01 -0.44107E+01 -0.10649E+02      982.00
  0.78757E+00  0.67188E+02    0.42500E+00  0.42500E+00 -0.85000E+00  0.00000E+00  0.00000E+00  0.00000E+00    0.19363E+02  0.22879E+02 -0.42242E+02 -0.55846E+01 -0.43794E+01 -0.10629E+02      982.00
  0.81114E+00  0.67352E+02    0.43750E+00  0.43750E+00 -0.87500E+00  0.00000E+00  0.00000E+00  0.00000E+00    0.19510E+02  0.22869E+02 -0.42378E+02 -0.55567E+01 -0.43477E+01 -0.10608E+02      982.00
  0.83474E+00  0.67504E+02    0.45000E+00  0.45000E+00 -0.90000E+00  0.00000E+00  0.00000E+00  0.00000E+00    0.19652E+02  0.22855E+02 -0.42507E+02 -0.55302E+01 -0.43156E+01 -0.10586E+02      982.00
  0.85835E+00  0.67647E+02    0.46250E+00  0.46250E+00 -0.92500E+00  0.00000E+00  0.00000E+00  0.00000E+00    0.19790E+02  0.22838E+02 -0.42627E+02 -0.55051E+01 -0.42832E+01 -0.10563E+02      982.00
  0.88198E+00  0.67710E+02    0.47500E+00  0.47500E+00 -0.95000E+00  0.00000E+00  0.00000E+00  0.00000E+00    0.19887E+02  0.22816E+02 -0.42703E+02 -0.54550E+01 -0.42294E+01 -0.10526E+02      982.00
  0.90563E+00  0.67770E+02    0.48750E+00  0.48750E+00 -0.97500E+00  0.00000E+00  0.00000E+00  0.00000E+00    0.19992E+02  0.22783E+02 -0.42775E+02 -0.54090E+01 -0.41789E+01 -0.10486E+02      982.00
  0.92930E+00  0.67826E+02    0.50000E+00  0.50000E+00 -0.10000E+01  0.00000E+00  0.00000E+00  0.00000E+00    0.20094E+02  0.22750E+02 -0.42844E+02 -0.53653E+01 -0.41299E+01 -0.10448E+02      982.00
