          Evm          Svm            E11          E22          E33          E23          E13          E12         SDEV11       SDEV22       SDEV33       SDEV23       SDEV13       SDEV12      TEMP
  0.00000E+00  0.57280E+02    0.00000E+00  0.00000E+00  0.00000E+00  0.00000E+00  0.00000E+00  0.00000E+00    0.21032E+02  0.14420E+02 -0.35452E+02 -0.22882E+00  0.44382E+01  0.10971E+02      982.00
  0.23210E-01  0.57376E+02    0.12500E-01  0.12500E-01 -0.25000E-01  0.00000E+00  0.00000E+00  0.00000E+00    0.20495E+02  0.14975E+02 -0.35470E+02 -0.52775E+00  0.41596E+01  0.11338E+02      982.00
  0.46392E-01  0.57528E+02    0.25000E-01  0.25000E-01 -0.50000E-01  0.00000E+00  0.00000E+00  0.00000E+00    0.19998E+02  0.15503E+02 -0.35501E+02 -0.80202E+00  0.39158E+01  0.11700E+02      982.00
  0.69534E-01  0.57736E+02    0.37500E-01  0.37500E-01 -0.75000E-01  0.00000E+00  0.00000E+00  0.00000E+00    0.19583E+02  0.15962E+02 -0.35545E+02 -0.10444E+01  0.37080E+01  0.12059E+02      982.00
  0.92621E-01  0.58001E+02    0.50000E-01  0.50000E-01 -0.10000E+00  0.00000E+00  0.00000E+00  0.00000E+00    0.19259E+02  0.16349E+02 -0.35607E+02 -0.12554E+01  0.35249E+01  0.12424E+02      982.00
  0.11564E+00  0.58331E+02    0.62500E-01  0.62500E-01 -0.12500E+00  0.00000E+00  0.00000E+00  0.00000E+00    0.19028E+02  0.16667E+02 -0.35695E+02 -0.14341E+01  0.33645E+01  0.12799E+02      982.00
  0.13859E+00  0.58694E+02    0.75000E-01  0.75000E-01 -0.15000E+00  0.00000E+00  0.00000E+00  0.00000E+00    0.18869E+02  0.16926E+02 -0.35795E+02 -0.15825E+01  0.32192E+01  0.13174E+02      982.00
  0.16146E+00  0.59085E+02    0.87500E-01  0.87500E-01 -0.17500E+00  0.00000E+00  0.00000E+00  0.00000E+00    0.18773E+02  0.17136E+02 -0.35909E+02 -0.17008E+01  0.30879E+01  0.13546E+02      982.00
  0.18425E+00  0.59492E+02    0.10000E+00  0.10000E+00 -0.20000E+00  0.00000E+00  0.00000E+00  0.00000E+00    0.18716E+02  0.17319E+02 -0.36034E+02 -0.17969E+01  0.29649E+01  0.13906E+02      982.00
  0.20696E+00  0.59890E+02    0.11250E+00  0.11250E+00 -0.22500E+00  0.00000E+00  0.00000E+00  0.00000E+00    0.18684E+02  0.17472E+02 -0.36156E+02 -0.18708E+01  0.28513E+01  0.14253E+02      982.00
  0.22960E+00  0.60280E+02    0.12500E+00  0.12500E+00 -0.25000E+00  0.00000E+00  0.00000E+00  0.00000E+00    0.18670E+02  0.17609E+02 -0.36278E+02 -0.19277E+01  0.27452E+01  0.14581E+02      982.00
  0.25217E+00  0.60655E+02    0.13750E+00  0.13750E+00 -0.27500E+00  0.00000E+00  0.00000E+00  0.00000E+00    0.18665E+02  0.17733E+02 -0.36398E+02 -0.19708E+01  0.26473E+01  0.14887E+02      982.00
  0.27468E+00  0.61006E+02    0.15000E+00  0.15000E+00 -0.30000E+00  0.00000E+00  0.00000E+00  0.00000E+00    0.18663E+02  0.17849E+02 -0.36512E+02 -0.20038E+01  0.25563E+01  0.15166E+02      982.00
  0.29712E+00  0.61347E+02    0.16250E+00  0.16250E+00 -0.32500E+00  0.00000E+00  0.00000E+00  0.00000E+00    0.18668E+02  0.17956E+02 -0.36624E+02 -0.20235E+01  0.24743E+01  0.15432E+02      982.00
  0.31951E+00  0.61655E+02    0.17500E+00  0.17500E+00 -0.35000E+00  0.00000E+00  0.00000E+00  0.00000E+00    0.18666E+02  0.18061E+02 -0.36727E+02 -0.20416E+01  0.23978E+01  0.15667E+02      982.00
  0.34184E+00  0.61955E+02    0.18750E+00  0.18750E+00 -0.37500E+00  0.00000E+00  0.00000E+00  0.00000E+00    0.18667E+02  0.18161E+02 -0.36828E+02 -0.20501E+01  0.23308E+01  0.15891E+02      982.00
  0.36414E+00  0.62240E+02    0.20000E+00  0.20000E+00 -0.40000E+00  0.00000E+00  0.00000E+00  0.00000E+00    0.18669E+02  0.18259E+02 -0.36928E+02 -0.20557E+01  0.22703E+01  0.16097E+02      982.00
  0.38638E+00  0.62499E+02    0.21250E+00  0.21250E+00 -0.42500E+00  0.00000E+00  0.00000E+00  0.00000E+00    0.18663E+02  0.18358E+02 -0.37021E+02 -0.20618E+01  0.22168E+01  0.16277E+02      982.00
  0.40860E+00  0.62749E+02    0.22500E+00  0.22500E+00 -0.45000E+00  0.00000E+00  0.00000E+00  0.00000E+00    0.18659E+02  0.18451E+02 -0.37110E+02 -0.20631E+01  0.21691E+01  0.16451E+02      982.00
  0.43078E+00  0.62954E+02    0.23750E+00  0.23750E+00 -0.47500E+00  0.00000E+00  0.00000E+00  0.00000E+00    0.18643E+02  0.18541E+02 -0.37184E+02 -0.20661E+01  0.21212E+01  0.16593E+02      982.00
  0.45292E+00  0.63165E+02    0.25000E+00  0.25000E+00 -0.50000E+00  0.00000E+00  0.00000E+00  0.00000E+00    0.18635E+02  0.18627E+02 -0.37262E+02 -0.20646E+01  0.20832E+01  0.16733E+02      982.00
  0.47505E+00  0.63363E+02    0.26250E+00  0.26250E+00 -0.52500E+00  0.00000E+00  0.00000E+00  0.00000E+00    0.18627E+02  0.18709E+02 -0.37336E+02 -0.20627E+01  0.20506E+01  0.16863E+02      982.00
  0.49714E+00  0.63553E+02    0.27500E+00  0.27500E+00 -0.55000E+00  0.00000E+00  0.00000E+00  0.00000E+00    0.18621E+02  0.18789E+02 -0.37410E+02 -0.20604E+01  0.20219E+01  0.16981E+02      982.00
  0.51922E+00  0.63707E+02    0.28750E+00  0.28750E+00 -0.57500E+00  0.00000E+00  0.00000E+00  0.00000E+00    0.18603E+02  0.18866E+02 -0.37469E+02 -0.20585E+01  0.19885E+01  0.17079E+02      982.00
  0.54127E+00  0.63868E+02    0.30000E+00  0.30000E+00 -0.60000E+00  0.00000E+00  0.00000E+00  0.00000E+00    0.18596E+02  0.18937E+02 -0.37533E+02 -0.20556E+01  0.19664E+01  0.17178E+02      982.00
  0.56331E+00  0.64013E+02    0.31250E+00  0.31250E+00 -0.62500E+00  0.00000E+00  0.00000E+00  0.00000E+00    0.18591E+02  0.19000E+02 -0.37592E+02 -0.20511E+01  0.19504E+01  0.17263E+02      982.00
  0.58533E+00  0.64152E+02    0.32500E+00  0.32500E+00 -0.65000E+00  0.00000E+00  0.00000E+00  0.00000E+00    0.18586E+02  0.19062E+02 -0.37647E+02 -0.20477E+01  0.19335E+01  0.17345E+02      982.00
  0.60734E+00  0.64279E+02    0.33750E+00  0.33750E+00 -0.67500E+00  0.00000E+00  0.00000E+00  0.00000E+00    0.18580E+02  0.19119E+02 -0.37698E+02 -0.20444E+01  0.19180E+01  0.17420E+02      982.00
  0.62933E+00  0.64402E+02    0.35000E+00  0.35000E+00 -0.70000E+00  0.00000E+00  0.00000E+00  0.00000E+00    0.18577E+02  0.19174E+02 -0.37750E+02 -0.20413E+01  0.19047E+01  0.17489E+02      982.00
  0.65131E+00  0.64509E+02    0.36250E+00  0.36250E+00 -0.72500E+00  0.00000E+00  0.00000E+00  0.00000E+00    0.18572E+02  0.19223E+02 -0.37795E+02 -0.20383E+01  0.18926E+01  0.17549E+02      982.00
  0.67328E+00  0.64582E+02    0.37500E+00  0.37500E+00 -0.75000E+00  0.00000E+00  0.00000E+00  0.00000E+00    0.18559E+02  0.19265E+02 -0.37824E+02 -0.20333E+01  0.18755E+01  0.17593E+02      982.00
  0.69525E+00  0.64683E+02    0.38750E+00  0.38750E+00 -0.77500E+00  0.00000E+00  0.00000E+00  0.00000E+00    0.18558E+02  0.19308E+02 -0.37867E+02 -0.20316E+01  0.18657E+01  0.17649E+02      982.00
  0.71720E+00  0.64774E+02    0.40000E+00  0.40000E+00 -0.80000E+00  0.00000E+00  0.00000E+00  0.00000E+00    0.18560E+02  0.19347E+02 -0.37907E+02 -0.20291E+01  0.18574E+01  0.17696E+02      982.00
  0.73915E+00  0.64858E+02    0.41250E+00  0.41250E+00 -0.82500E+00  0.00000E+00  0.00000E+00  0.00000E+00    0.18561E+02  0.19382E+02 -0.37944E+02 -0.20271E+01  0.18498E+01  0.17739E+02      982.00
  0.76108E+00  0.64942E+02    0.42500E+00  0.42500E+00 -0.85000E+00  0.00000E+00  0.00000E+00  0.00000E+00    0.18551E+02  0.19425E+02 -0.37975E+02 -0.20210E+01  0.18301E+01  0.17793E+02      982.00
  0.78301E+00  0.65021E+02    0.43750E+00  0.43750E+00 -0.87500E+00  0.00000E+00  0.00000E+00  0.00000E+00    0.18557E+02  0.19456E+02 -0.38012E+02 -0.20201E+01  0.18224E+01  0.17831E+02      982.00
  0.80494E+00  0.65085E+02    0.45000E+00  0.45000E+00 -0.90000E+00  0.00000E+00  0.00000E+00  0.00000E+00    0.18562E+02  0.19479E+02 -0.38041E+02 -0.20190E+01  0.18165E+01  0.17863E+02      982.00
  0.82685E+00  0.65151E+02    0.46250E+00  0.46250E+00 -0.92500E+00  0.00000E+00  0.00000E+00  0.00000E+00    0.18571E+02  0.19502E+02 -0.38072E+02 -0.20187E+01  0.18122E+01  0.17894E+02      982.00
  0.84877E+00  0.65211E+02    0.47500E+00  0.47500E+00 -0.95000E+00  0.00000E+00  0.00000E+00  0.00000E+00    0.18579E+02  0.19521E+02 -0.38100E+02 -0.20185E+01  0.18078E+01  0.17924E+02      982.00
  0.87068E+00  0.65258E+02    0.48750E+00  0.48750E+00 -0.97500E+00  0.00000E+00  0.00000E+00  0.00000E+00    0.18585E+02  0.19535E+02 -0.38120E+02 -0.20186E+01  0.18038E+01  0.17948E+02      982.00
  0.89258E+00  0.65267E+02    0.50000E+00  0.50000E+00 -0.10000E+01  0.00000E+00  0.00000E+00  0.00000E+00    0.18588E+02  0.19538E+02 -0.38126E+02 -0.20244E+01  0.18072E+01  0.17948E+02      982.00
