          Evm          Svm            E11          E22          E33          E23          E13          E12         SDEV11       SDEV22       SDEV33       SDEV23       SDEV13       SDEV12      TEMP
  0.00000E+00  0.56926E+02    0.00000E+00  0.00000E+00  0.00000E+00  0.00000E+00  0.00000E+00  0.00000E+00    0.15729E+02  0.18393E+02 -0.34122E+02 -0.45768E+01  0.15443E+01  0.13485E+02      982.00
  0.22478E-01  0.56912E+02    0.12500E-01  0.12500E-01 -0.25000E-01  0.00000E+00  0.00000E+00  0.00000E+00    0.16039E+02  0.18079E+02 -0.34117E+02 -0.42033E+01  0.17138E+01  0.13603E+02      982.00
  0.44958E-01  0.57024E+02    0.25000E-01  0.25000E-01 -0.50000E-01  0.00000E+00  0.00000E+00  0.00000E+00    0.16275E+02  0.17884E+02 -0.34159E+02 -0.39188E+01  0.18144E+01  0.13765E+02      982.00
  0.67422E-01  0.57244E+02    0.37500E-01  0.37500E-01 -0.75000E-01  0.00000E+00  0.00000E+00  0.00000E+00    0.16471E+02  0.17772E+02 -0.34243E+02 -0.36780E+01  0.18801E+01  0.13977E+02      982.00
  0.89854E-01  0.57552E+02    0.50000E-01  0.50000E-01 -0.10000E+00  0.00000E+00  0.00000E+00  0.00000E+00    0.16640E+02  0.17723E+02 -0.34363E+02 -0.34674E+01  0.19228E+01  0.14228E+02      982.00
  0.11224E+00  0.57926E+02    0.62500E-01  0.62500E-01 -0.12500E+00  0.00000E+00  0.00000E+00  0.00000E+00    0.16787E+02  0.17725E+02 -0.34512E+02 -0.32841E+01  0.19459E+01  0.14504E+02      982.00
  0.13459E+00  0.58347E+02    0.75000E-01  0.75000E-01 -0.15000E+00  0.00000E+00  0.00000E+00  0.00000E+00    0.16919E+02  0.17765E+02 -0.34683E+02 -0.31237E+01  0.19539E+01  0.14793E+02      982.00
  0.15688E+00  0.58786E+02    0.87500E-01  0.87500E-01 -0.17500E+00  0.00000E+00  0.00000E+00  0.00000E+00    0.17037E+02  0.17830E+02 -0.34867E+02 -0.29856E+01  0.19495E+01  0.15077E+02      982.00
  0.17912E+00  0.59238E+02    0.10000E+00  0.10000E+00 -0.20000E+00  0.00000E+00  0.00000E+00  0.00000E+00    0.17147E+02  0.17910E+02 -0.35057E+02 -0.28598E+01  0.19367E+01  0.15358E+02      982.00
  0.20131E+00  0.59703E+02    0.11250E+00  0.11250E+00 -0.22500E+00  0.00000E+00  0.00000E+00  0.00000E+00    0.17253E+02  0.18003E+02 -0.35256E+02 -0.27592E+01  0.19155E+01  0.15636E+02      982.00
  0.22346E+00  0.60160E+02    0.12500E+00  0.12500E+00 -0.25000E+00  0.00000E+00  0.00000E+00  0.00000E+00    0.17357E+02  0.18098E+02 -0.35455E+02 -0.26733E+01  0.18925E+01  0.15899E+02      982.00
  0.24556E+00  0.60589E+02    0.13750E+00  0.13750E+00 -0.27500E+00  0.00000E+00  0.00000E+00  0.00000E+00    0.17456E+02  0.18188E+02 -0.35644E+02 -0.25906E+01  0.18689E+01  0.16139E+02      982.00
  0.26762E+00  0.61009E+02    0.15000E+00  0.15000E+00 -0.30000E+00  0.00000E+00  0.00000E+00  0.00000E+00    0.17555E+02  0.18276E+02 -0.35830E+02 -0.25166E+01  0.18435E+01  0.16370E+02      982.00
  0.28964E+00  0.61401E+02    0.16250E+00  0.16250E+00 -0.32500E+00  0.00000E+00  0.00000E+00  0.00000E+00    0.17653E+02  0.18358E+02 -0.36011E+02 -0.24666E+01  0.18224E+01  0.16570E+02      982.00
  0.31163E+00  0.61766E+02    0.17500E+00  0.17500E+00 -0.35000E+00  0.00000E+00  0.00000E+00  0.00000E+00    0.17750E+02  0.18432E+02 -0.36182E+02 -0.24248E+01  0.18027E+01  0.16751E+02      982.00
  0.33360E+00  0.62118E+02    0.18750E+00  0.18750E+00 -0.37500E+00  0.00000E+00  0.00000E+00  0.00000E+00    0.17848E+02  0.18498E+02 -0.36346E+02 -0.23768E+01  0.17795E+01  0.16927E+02      982.00
  0.35554E+00  0.62427E+02    0.20000E+00  0.20000E+00 -0.40000E+00  0.00000E+00  0.00000E+00  0.00000E+00    0.17941E+02  0.18555E+02 -0.36497E+02 -0.23477E+01  0.17640E+01  0.17068E+02      982.00
  0.37747E+00  0.62710E+02    0.21250E+00  0.21250E+00 -0.42500E+00  0.00000E+00  0.00000E+00  0.00000E+00    0.18032E+02  0.18605E+02 -0.36637E+02 -0.23235E+01  0.17499E+01  0.17192E+02      982.00
  0.39938E+00  0.62932E+02    0.22500E+00  0.22500E+00 -0.45000E+00  0.00000E+00  0.00000E+00  0.00000E+00    0.18106E+02  0.18647E+02 -0.36753E+02 -0.23125E+01  0.17419E+01  0.17280E+02      982.00
  0.42128E+00  0.63199E+02    0.23750E+00  0.23750E+00 -0.47500E+00  0.00000E+00  0.00000E+00  0.00000E+00    0.18205E+02  0.18677E+02 -0.36881E+02 -0.22791E+01  0.17227E+01  0.17406E+02      982.00
  0.44316E+00  0.63383E+02    0.25000E+00  0.25000E+00 -0.50000E+00  0.00000E+00  0.00000E+00  0.00000E+00    0.18274E+02  0.18707E+02 -0.36981E+02 -0.22706E+01  0.17172E+01  0.17472E+02      982.00
  0.46504E+00  0.63611E+02    0.26250E+00  0.26250E+00 -0.52500E+00  0.00000E+00  0.00000E+00  0.00000E+00    0.18368E+02  0.18730E+02 -0.37098E+02 -0.22505E+01  0.17042E+01  0.17567E+02      982.00
  0.48691E+00  0.63792E+02    0.27500E+00  0.27500E+00 -0.55000E+00  0.00000E+00  0.00000E+00  0.00000E+00    0.18447E+02  0.18749E+02 -0.37195E+02 -0.22386E+01  0.16963E+01  0.17633E+02      982.00
  0.50878E+00  0.63957E+02    0.28750E+00  0.28750E+00 -0.57500E+00  0.00000E+00  0.00000E+00  0.00000E+00    0.18522E+02  0.18763E+02 -0.37285E+02 -0.22287E+01  0.16893E+01  0.17692E+02      982.00
  0.53064E+00  0.64108E+02    0.30000E+00  0.30000E+00 -0.60000E+00  0.00000E+00  0.00000E+00  0.00000E+00    0.18595E+02  0.18774E+02 -0.37369E+02 -0.22199E+01  0.16829E+01  0.17744E+02      982.00
  0.55250E+00  0.64247E+02    0.31250E+00  0.31250E+00 -0.62500E+00  0.00000E+00  0.00000E+00  0.00000E+00    0.18664E+02  0.18782E+02 -0.37446E+02 -0.22120E+01  0.16772E+01  0.17790E+02      982.00
  0.57435E+00  0.64374E+02    0.32500E+00  0.32500E+00 -0.65000E+00  0.00000E+00  0.00000E+00  0.00000E+00    0.18732E+02  0.18787E+02 -0.37518E+02 -0.22050E+01  0.16720E+01  0.17832E+02      982.00
  0.59621E+00  0.64492E+02    0.33750E+00  0.33750E+00 -0.67500E+00  0.00000E+00  0.00000E+00  0.00000E+00    0.18797E+02  0.18788E+02 -0.37585E+02 -0.21986E+01  0.16673E+01  0.17869E+02      982.00
  0.61806E+00  0.64600E+02    0.35000E+00  0.35000E+00 -0.70000E+00  0.00000E+00  0.00000E+00  0.00000E+00    0.18859E+02  0.18788E+02 -0.37647E+02 -0.21929E+01  0.16630E+01  0.17902E+02      982.00
  0.63992E+00  0.64699E+02    0.36250E+00  0.36250E+00 -0.72500E+00  0.00000E+00  0.00000E+00  0.00000E+00    0.18920E+02  0.18785E+02 -0.37705E+02 -0.21878E+01  0.16592E+01  0.17932E+02      982.00
  0.66177E+00  0.64791E+02    0.37500E+00  0.37500E+00 -0.75000E+00  0.00000E+00  0.00000E+00  0.00000E+00    0.18978E+02  0.18781E+02 -0.37758E+02 -0.21832E+01  0.16557E+01  0.17959E+02      982.00
  0.68363E+00  0.64867E+02    0.38750E+00  0.38750E+00 -0.77500E+00  0.00000E+00  0.00000E+00  0.00000E+00    0.19042E+02  0.18759E+02 -0.37801E+02 -0.21777E+01  0.16523E+01  0.17983E+02      982.00
  0.70548E+00  0.64948E+02    0.40000E+00  0.40000E+00 -0.80000E+00  0.00000E+00  0.00000E+00  0.00000E+00    0.19098E+02  0.18751E+02 -0.37849E+02 -0.21736E+01  0.16498E+01  0.18005E+02      982.00
  0.72733E+00  0.65020E+02    0.41250E+00  0.41250E+00 -0.82500E+00  0.00000E+00  0.00000E+00  0.00000E+00    0.19150E+02  0.18742E+02 -0.37892E+02 -0.21701E+01  0.16474E+01  0.18024E+02      982.00
  0.74919E+00  0.65088E+02    0.42500E+00  0.42500E+00 -0.85000E+00  0.00000E+00  0.00000E+00  0.00000E+00    0.19200E+02  0.18733E+02 -0.37933E+02 -0.21671E+01  0.16452E+01  0.18042E+02      982.00
  0.77104E+00  0.65151E+02    0.43750E+00  0.43750E+00 -0.87500E+00  0.00000E+00  0.00000E+00  0.00000E+00    0.19249E+02  0.18722E+02 -0.37971E+02 -0.21644E+01  0.16432E+01  0.18058E+02      982.00
  0.79290E+00  0.65209E+02    0.45000E+00  0.45000E+00 -0.90000E+00  0.00000E+00  0.00000E+00  0.00000E+00    0.19296E+02  0.18710E+02 -0.38006E+02 -0.21621E+01  0.16415E+01  0.18072E+02      982.00
  0.81475E+00  0.65264E+02    0.46250E+00  0.46250E+00 -0.92500E+00  0.00000E+00  0.00000E+00  0.00000E+00    0.19341E+02  0.18698E+02 -0.38039E+02 -0.21600E+01  0.16399E+01  0.18086E+02      982.00
  0.83661E+00  0.65315E+02    0.47500E+00  0.47500E+00 -0.95000E+00  0.00000E+00  0.00000E+00  0.00000E+00    0.19385E+02  0.18685E+02 -0.38070E+02 -0.21583E+01  0.16385E+01  0.18099E+02      982.00
  0.85847E+00  0.65363E+02    0.48750E+00  0.48750E+00 -0.97500E+00  0.00000E+00  0.00000E+00  0.00000E+00    0.19428E+02  0.18671E+02 -0.38099E+02 -0.21568E+01  0.16374E+01  0.18110E+02      982.00
  0.88033E+00  0.65371E+02    0.50000E+00  0.50000E+00 -0.10000E+01  0.00000E+00  0.00000E+00  0.00000E+00    0.19414E+02  0.18688E+02 -0.38102E+02 -0.21562E+01  0.16406E+01  0.18115E+02      982.00
