          Evm          Svm            E11          E22          E33          E23          E13          E12         SDEV11       SDEV22       SDEV33       SDEV23       SDEV13       SDEV12      TEMP
  0.00000E+00  0.58504E+02    0.00000E+00  0.00000E+00  0.00000E+00  0.00000E+00  0.00000E+00  0.00000E+00    0.15091E+02  0.20784E+02 -0.35875E+02 -0.63017E+01 -0.58434E+01 -0.96797E+01      982.00
  0.22995E-01  0.58659E+02    0.12500E-01  0.12500E-01 -0.25000E-01  0.00000E+00  0.00000E+00  0.00000E+00    0.15381E+02  0.20671E+02 -0.36052E+02 -0.63894E+01 -0.57137E+01 -0.95732E+01      982.00
  0.46043E-01  0.58832E+02    0.25000E-01  0.25000E-01 -0.50000E-01  0.00000E+00  0.00000E+00  0.00000E+00    0.15612E+02  0.20623E+02 -0.36235E+02 -0.64365E+01 -0.56028E+01 -0.94822E+01      982.00
  0.69140E-01  0.59049E+02    0.37500E-01  0.37500E-01 -0.75000E-01  0.00000E+00  0.00000E+00  0.00000E+00    0.15808E+02  0.20628E+02 -0.36436E+02 -0.64583E+01 -0.55103E+01 -0.94185E+01      982.00
  0.92279E-01  0.59288E+02    0.50000E-01  0.50000E-01 -0.10000E+00  0.00000E+00  0.00000E+00  0.00000E+00    0.15982E+02  0.20663E+02 -0.36645E+02 -0.64586E+01 -0.54248E+01 -0.93774E+01      982.00
  0.11546E+00  0.59569E+02    0.62500E-01  0.62500E-01 -0.12500E+00  0.00000E+00  0.00000E+00  0.00000E+00    0.16132E+02  0.20742E+02 -0.36873E+02 -0.64412E+01 -0.53492E+01 -0.93628E+01      982.00
  0.13867E+00  0.59881E+02    0.75000E-01  0.75000E-01 -0.15000E+00  0.00000E+00  0.00000E+00  0.00000E+00    0.16267E+02  0.20850E+02 -0.37117E+02 -0.64097E+01 -0.52794E+01 -0.93698E+01      982.00
  0.16191E+00  0.60223E+02    0.87500E-01  0.87500E-01 -0.17500E+00  0.00000E+00  0.00000E+00  0.00000E+00    0.16394E+02  0.20981E+02 -0.37375E+02 -0.63679E+01 -0.52148E+01 -0.93955E+01      982.00
  0.18519E+00  0.60592E+02    0.10000E+00  0.10000E+00 -0.20000E+00  0.00000E+00  0.00000E+00  0.00000E+00    0.16515E+02  0.21130E+02 -0.37645E+02 -0.63200E+01 -0.51562E+01 -0.94381E+01      982.00
  0.20848E+00  0.60984E+02    0.11250E+00  0.11250E+00 -0.22500E+00  0.00000E+00  0.00000E+00  0.00000E+00    0.16636E+02  0.21292E+02 -0.37928E+02 -0.62654E+01 -0.51019E+01 -0.94905E+01      982.00
  0.23181E+00  0.61394E+02    0.12500E+00  0.12500E+00 -0.25000E+00  0.00000E+00  0.00000E+00  0.00000E+00    0.16759E+02  0.21461E+02 -0.38220E+02 -0.62074E+01 -0.50527E+01 -0.95507E+01      982.00
  0.25515E+00  0.61824E+02    0.13750E+00  0.13750E+00 -0.27500E+00  0.00000E+00  0.00000E+00  0.00000E+00    0.16883E+02  0.21640E+02 -0.38523E+02 -0.61485E+01 -0.50068E+01 -0.96201E+01      982.00
  0.27852E+00  0.62276E+02    0.15000E+00  0.15000E+00 -0.30000E+00  0.00000E+00  0.00000E+00  0.00000E+00    0.17018E+02  0.21822E+02 -0.38839E+02 -0.60860E+01 -0.49652E+01 -0.96930E+01      982.00
  0.30191E+00  0.62705E+02    0.16250E+00  0.16250E+00 -0.32500E+00  0.00000E+00  0.00000E+00  0.00000E+00    0.17157E+02  0.21984E+02 -0.39141E+02 -0.60246E+01 -0.49299E+01 -0.97559E+01      982.00
  0.32531E+00  0.63162E+02    0.17500E+00  0.17500E+00 -0.35000E+00  0.00000E+00  0.00000E+00  0.00000E+00    0.17312E+02  0.22149E+02 -0.39462E+02 -0.59629E+01 -0.49005E+01 -0.98229E+01      982.00
  0.34874E+00  0.63573E+02    0.18750E+00  0.18750E+00 -0.37500E+00  0.00000E+00  0.00000E+00  0.00000E+00    0.17464E+02  0.22290E+02 -0.39753E+02 -0.59030E+01 -0.48721E+01 -0.98761E+01      982.00
  0.37219E+00  0.63968E+02    0.20000E+00  0.20000E+00 -0.40000E+00  0.00000E+00  0.00000E+00  0.00000E+00    0.17621E+02  0.22414E+02 -0.40036E+02 -0.58452E+01 -0.48462E+01 -0.99220E+01      982.00
  0.39566E+00  0.64319E+02    0.21250E+00  0.21250E+00 -0.42500E+00  0.00000E+00  0.00000E+00  0.00000E+00    0.17765E+02  0.22523E+02 -0.40288E+02 -0.57939E+01 -0.48178E+01 -0.99593E+01      982.00
  0.41915E+00  0.64688E+02    0.22500E+00  0.22500E+00 -0.45000E+00  0.00000E+00  0.00000E+00  0.00000E+00    0.17923E+02  0.22630E+02 -0.40553E+02 -0.57435E+01 -0.47938E+01 -0.99972E+01      982.00
  0.44266E+00  0.65038E+02    0.23750E+00  0.23750E+00 -0.47500E+00  0.00000E+00  0.00000E+00  0.00000E+00    0.18081E+02  0.22724E+02 -0.40805E+02 -0.56950E+01 -0.47701E+01 -0.10029E+02      982.00
  0.46619E+00  0.65367E+02    0.25000E+00  0.25000E+00 -0.50000E+00  0.00000E+00  0.00000E+00  0.00000E+00    0.18238E+02  0.22807E+02 -0.41045E+02 -0.56488E+01 -0.47463E+01 -0.10055E+02      982.00
  0.48974E+00  0.65677E+02    0.26250E+00  0.26250E+00 -0.52500E+00  0.00000E+00  0.00000E+00  0.00000E+00    0.18393E+02  0.22879E+02 -0.41272E+02 -0.56050E+01 -0.47222E+01 -0.10075E+02      982.00
  0.51330E+00  0.65957E+02    0.27500E+00  0.27500E+00 -0.55000E+00  0.00000E+00  0.00000E+00  0.00000E+00    0.18537E+02  0.22940E+02 -0.41476E+02 -0.55711E+01 -0.47017E+01 -0.10094E+02      982.00
  0.53688E+00  0.66229E+02    0.28750E+00  0.28750E+00 -0.57500E+00  0.00000E+00  0.00000E+00  0.00000E+00    0.18685E+02  0.22994E+02 -0.41679E+02 -0.55319E+01 -0.46763E+01 -0.10106E+02      982.00
  0.56048E+00  0.66483E+02    0.30000E+00  0.30000E+00 -0.60000E+00  0.00000E+00  0.00000E+00  0.00000E+00    0.18832E+02  0.23038E+02 -0.41870E+02 -0.54940E+01 -0.46505E+01 -0.10113E+02      982.00
  0.58410E+00  0.66720E+02    0.31250E+00  0.31250E+00 -0.62500E+00  0.00000E+00  0.00000E+00  0.00000E+00    0.18974E+02  0.23075E+02 -0.42049E+02 -0.54581E+01 -0.46243E+01 -0.10118E+02      982.00
  0.60773E+00  0.66939E+02    0.32500E+00  0.32500E+00 -0.65000E+00  0.00000E+00  0.00000E+00  0.00000E+00    0.19113E+02  0.23104E+02 -0.42216E+02 -0.54241E+01 -0.45975E+01 -0.10119E+02      982.00
  0.63138E+00  0.67143E+02    0.33750E+00  0.33750E+00 -0.67500E+00  0.00000E+00  0.00000E+00  0.00000E+00    0.19247E+02  0.23126E+02 -0.42373E+02 -0.53919E+01 -0.45702E+01 -0.10118E+02      982.00
  0.65505E+00  0.67332E+02    0.35000E+00  0.35000E+00 -0.70000E+00  0.00000E+00  0.00000E+00  0.00000E+00    0.19377E+02  0.23142E+02 -0.42520E+02 -0.53615E+01 -0.45426E+01 -0.10116E+02      982.00
  0.67873E+00  0.67507E+02    0.36250E+00  0.36250E+00 -0.72500E+00  0.00000E+00  0.00000E+00  0.00000E+00    0.19503E+02  0.23153E+02 -0.42656E+02 -0.53329E+01 -0.45145E+01 -0.10111E+02      982.00
  0.70243E+00  0.67669E+02    0.37500E+00  0.37500E+00 -0.75000E+00  0.00000E+00  0.00000E+00  0.00000E+00    0.19625E+02  0.23159E+02 -0.42784E+02 -0.53059E+01 -0.44861E+01 -0.10105E+02      982.00
  0.72613E+00  0.67819E+02    0.38750E+00  0.38750E+00 -0.77500E+00  0.00000E+00  0.00000E+00  0.00000E+00    0.19743E+02  0.23160E+02 -0.42903E+02 -0.52806E+01 -0.44575E+01 -0.10098E+02      982.00
  0.74986E+00  0.67958E+02    0.40000E+00  0.40000E+00 -0.80000E+00  0.00000E+00  0.00000E+00  0.00000E+00    0.19856E+02  0.23158E+02 -0.43014E+02 -0.52570E+01 -0.44287E+01 -0.10091E+02      982.00
  0.77359E+00  0.68085E+02    0.41250E+00  0.41250E+00 -0.82500E+00  0.00000E+00  0.00000E+00  0.00000E+00    0.19982E+02  0.23140E+02 -0.43122E+02 -0.52253E+01 -0.43928E+01 -0.10075E+02      982.00
  0.79734E+00  0.68204E+02    0.42500E+00  0.42500E+00 -0.85000E+00  0.00000E+00  0.00000E+00  0.00000E+00    0.20072E+02  0.23141E+02 -0.43213E+02 -0.52136E+01 -0.43705E+01 -0.10073E+02      982.00
  0.82110E+00  0.68312E+02    0.43750E+00  0.43750E+00 -0.87500E+00  0.00000E+00  0.00000E+00  0.00000E+00    0.20188E+02  0.23118E+02 -0.43305E+02 -0.51868E+01 -0.43339E+01 -0.10057E+02      982.00
  0.84488E+00  0.68413E+02    0.45000E+00  0.45000E+00 -0.90000E+00  0.00000E+00  0.00000E+00  0.00000E+00    0.20289E+02  0.23100E+02 -0.43388E+02 -0.51716E+01 -0.43049E+01 -0.10048E+02      982.00
  0.86866E+00  0.68436E+02    0.46250E+00  0.46250E+00 -0.92500E+00  0.00000E+00  0.00000E+00  0.00000E+00    0.20342E+02  0.23083E+02 -0.43425E+02 -0.51325E+01 -0.42569E+01 -0.10027E+02      982.00
  0.89245E+00  0.68469E+02    0.47500E+00  0.47500E+00 -0.95000E+00  0.00000E+00  0.00000E+00  0.00000E+00    0.20407E+02  0.23057E+02 -0.43464E+02 -0.51048E+01 -0.42185E+01 -0.10012E+02      982.00
  0.91626E+00  0.68492E+02    0.48750E+00  0.48750E+00 -0.97500E+00  0.00000E+00  0.00000E+00  0.00000E+00    0.20475E+02  0.23024E+02 -0.43499E+02 -0.50711E+01 -0.41740E+01 -0.99909E+01      982.00
  0.94007E+00  0.68510E+02    0.50000E+00  0.50000E+00 -0.10000E+01  0.00000E+00  0.00000E+00  0.00000E+00    0.20532E+02  0.22996E+02 -0.43528E+02 -0.50395E+01 -0.41319E+01 -0.99759E+01      982.00
