          Evm          Svm            E11          E22          E33          E23          E13          E12         SDEV11       SDEV22       SDEV33       SDEV23       SDEV13       SDEV12      TEMP
  0.00000E+00  0.64887E+02    0.00000E+00  0.00000E+00  0.00000E+00  0.00000E+00  0.00000E+00  0.00000E+00    0.14933E+02  0.26662E+02 -0.41595E+02  0.14194E+01 -0.74615E+01 -0.37120E+01      982.00
  0.24039E-01  0.64750E+02    0.12500E-01  0.12500E-01 -0.25000E-01  0.00000E+00  0.00000E+00  0.00000E+00    0.14607E+02  0.26884E+02 -0.41491E+02  0.15042E+01 -0.72906E+01 -0.36458E+01      982.00
  0.48068E-01  0.64692E+02    0.25000E-01  0.25000E-01 -0.50000E-01  0.00000E+00  0.00000E+00  0.00000E+00    0.14302E+02  0.27130E+02 -0.41432E+02  0.15811E+01 -0.71501E+01 -0.35757E+01      982.00
  0.72085E-01  0.64705E+02    0.37500E-01  0.37500E-01 -0.75000E-01  0.00000E+00  0.00000E+00  0.00000E+00    0.14000E+02  0.27414E+02 -0.41414E+02  0.16482E+01 -0.70155E+01 -0.35056E+01      982.00
  0.96087E-01  0.64785E+02    0.50000E-01  0.50000E-01 -0.10000E+00  0.00000E+00  0.00000E+00  0.00000E+00    0.13718E+02  0.27718E+02 -0.41436E+02  0.17013E+01 -0.68981E+01 -0.34424E+01      982.00
  0.12007E+00  0.64929E+02    0.62500E-01  0.62500E-01 -0.12500E+00  0.00000E+00  0.00000E+00  0.00000E+00    0.13463E+02  0.28033E+02 -0.41497E+02  0.17391E+01 -0.67960E+01 -0.33894E+01      982.00
  0.14404E+00  0.65139E+02    0.75000E-01  0.75000E-01 -0.15000E+00  0.00000E+00  0.00000E+00  0.00000E+00    0.13236E+02  0.28363E+02 -0.41599E+02  0.17632E+01 -0.67041E+01 -0.33509E+01      982.00
  0.16799E+00  0.65403E+02    0.87500E-01  0.87500E-01 -0.17500E+00  0.00000E+00  0.00000E+00  0.00000E+00    0.13048E+02  0.28688E+02 -0.41736E+02  0.17627E+01 -0.66386E+01 -0.33295E+01      982.00
  0.19192E+00  0.65711E+02    0.10000E+00  0.10000E+00 -0.20000E+00  0.00000E+00  0.00000E+00  0.00000E+00    0.12895E+02  0.29008E+02 -0.41903E+02  0.17429E+01 -0.65883E+01 -0.33251E+01      982.00
  0.21583E+00  0.66051E+02    0.11250E+00  0.11250E+00 -0.22500E+00  0.00000E+00  0.00000E+00  0.00000E+00    0.12770E+02  0.29323E+02 -0.42093E+02  0.17085E+01 -0.65413E+01 -0.33388E+01      982.00
  0.23973E+00  0.66416E+02    0.12500E+00  0.12500E+00 -0.25000E+00  0.00000E+00  0.00000E+00  0.00000E+00    0.12678E+02  0.29624E+02 -0.42302E+02  0.16519E+01 -0.65125E+01 -0.33673E+01      982.00
  0.26361E+00  0.66791E+02    0.13750E+00  0.13750E+00 -0.27500E+00  0.00000E+00  0.00000E+00  0.00000E+00    0.12603E+02  0.29917E+02 -0.42520E+02  0.15785E+01 -0.64797E+01 -0.34136E+01      982.00
  0.28749E+00  0.67177E+02    0.15000E+00  0.15000E+00 -0.30000E+00  0.00000E+00  0.00000E+00  0.00000E+00    0.12555E+02  0.30193E+02 -0.42748E+02  0.14874E+01 -0.64567E+01 -0.34686E+01      982.00
  0.31135E+00  0.67564E+02    0.16250E+00  0.16250E+00 -0.32500E+00  0.00000E+00  0.00000E+00  0.00000E+00    0.12523E+02  0.30457E+02 -0.42980E+02  0.13799E+01 -0.64313E+01 -0.35336E+01      982.00
  0.33520E+00  0.67951E+02    0.17500E+00  0.17500E+00 -0.35000E+00  0.00000E+00  0.00000E+00  0.00000E+00    0.12502E+02  0.30713E+02 -0.43215E+02  0.12573E+01 -0.63994E+01 -0.36085E+01      982.00
  0.35905E+00  0.68340E+02    0.18750E+00  0.18750E+00 -0.37500E+00  0.00000E+00  0.00000E+00  0.00000E+00    0.12493E+02  0.30961E+02 -0.43454E+02  0.11221E+01 -0.63613E+01 -0.36890E+01      982.00
  0.38290E+00  0.68725E+02    0.20000E+00  0.20000E+00 -0.40000E+00  0.00000E+00  0.00000E+00  0.00000E+00    0.12495E+02  0.31198E+02 -0.43693E+02  0.98081E+00 -0.63222E+01 -0.37689E+01      982.00
  0.40674E+00  0.69105E+02    0.21250E+00  0.21250E+00 -0.42500E+00  0.00000E+00  0.00000E+00  0.00000E+00    0.12507E+02  0.31424E+02 -0.43931E+02  0.85576E+00 -0.62824E+01 -0.38379E+01      982.00
  0.43058E+00  0.69434E+02    0.22500E+00  0.22500E+00 -0.45000E+00  0.00000E+00  0.00000E+00  0.00000E+00    0.12538E+02  0.31607E+02 -0.44145E+02  0.78405E+00 -0.62448E+01 -0.38632E+01      982.00
  0.45442E+00  0.69691E+02    0.23750E+00  0.23750E+00 -0.47500E+00  0.00000E+00  0.00000E+00  0.00000E+00    0.12580E+02  0.31745E+02 -0.44325E+02  0.74266E+00 -0.61876E+01 -0.38352E+01      982.00
  0.47827E+00  0.69843E+02    0.25000E+00  0.25000E+00 -0.50000E+00  0.00000E+00  0.00000E+00  0.00000E+00    0.12629E+02  0.31825E+02 -0.44453E+02  0.67564E+00 -0.60913E+01 -0.37751E+01      982.00
  0.50214E+00  0.69922E+02    0.26250E+00  0.26250E+00 -0.52500E+00  0.00000E+00  0.00000E+00  0.00000E+00    0.12677E+02  0.31867E+02 -0.44544E+02  0.54033E+00 -0.59574E+01 -0.37059E+01      982.00
  0.52603E+00  0.70002E+02    0.27500E+00  0.27500E+00 -0.55000E+00  0.00000E+00  0.00000E+00  0.00000E+00    0.12721E+02  0.31911E+02 -0.44632E+02  0.35795E+00 -0.58150E+01 -0.36613E+01      982.00
  0.54994E+00  0.70082E+02    0.28750E+00  0.28750E+00 -0.57500E+00  0.00000E+00  0.00000E+00  0.00000E+00    0.12764E+02  0.31953E+02 -0.44717E+02  0.15392E+00 -0.56759E+01 -0.36235E+01      982.00
  0.57387E+00  0.70172E+02    0.30000E+00  0.30000E+00 -0.60000E+00  0.00000E+00  0.00000E+00  0.00000E+00    0.12797E+02  0.32004E+02 -0.44802E+02 -0.56692E-01 -0.55439E+01 -0.36050E+01      982.00
  0.59781E+00  0.70268E+02    0.31250E+00  0.31250E+00 -0.62500E+00  0.00000E+00  0.00000E+00  0.00000E+00    0.12825E+02  0.32059E+02 -0.44884E+02 -0.25513E+00 -0.54267E+01 -0.35951E+01      982.00
  0.62176E+00  0.70372E+02    0.32500E+00  0.32500E+00 -0.65000E+00  0.00000E+00  0.00000E+00  0.00000E+00    0.12844E+02  0.32121E+02 -0.44964E+02 -0.43559E+00 -0.53238E+01 -0.35977E+01      982.00
  0.64572E+00  0.70473E+02    0.33750E+00  0.33750E+00 -0.67500E+00  0.00000E+00  0.00000E+00  0.00000E+00    0.12861E+02  0.32179E+02 -0.45040E+02 -0.58821E+00 -0.52387E+01 -0.35961E+01      982.00
  0.66969E+00  0.70576E+02    0.35000E+00  0.35000E+00 -0.70000E+00  0.00000E+00  0.00000E+00  0.00000E+00    0.12870E+02  0.32242E+02 -0.45112E+02 -0.72093E+00 -0.51653E+01 -0.36044E+01      982.00
  0.69366E+00  0.70674E+02    0.36250E+00  0.36250E+00 -0.72500E+00  0.00000E+00  0.00000E+00  0.00000E+00    0.12879E+02  0.32301E+02 -0.45180E+02 -0.82655E+00 -0.51060E+01 -0.36047E+01      982.00
  0.71763E+00  0.70765E+02    0.37500E+00  0.37500E+00 -0.75000E+00  0.00000E+00  0.00000E+00  0.00000E+00    0.12890E+02  0.32352E+02 -0.45242E+02 -0.90778E+00 -0.50622E+01 -0.36022E+01      982.00
  0.74161E+00  0.70851E+02    0.38750E+00  0.38750E+00 -0.77500E+00  0.00000E+00  0.00000E+00  0.00000E+00    0.12888E+02  0.32409E+02 -0.45297E+02 -0.98406E+00 -0.50179E+01 -0.36126E+01      982.00
  0.76558E+00  0.70933E+02    0.40000E+00  0.40000E+00 -0.80000E+00  0.00000E+00  0.00000E+00  0.00000E+00    0.12888E+02  0.32461E+02 -0.45349E+02 -0.10443E+01 -0.49832E+01 -0.36167E+01      982.00
  0.78955E+00  0.71010E+02    0.41250E+00  0.41250E+00 -0.82500E+00  0.00000E+00  0.00000E+00  0.00000E+00    0.12886E+02  0.32511E+02 -0.45397E+02 -0.10944E+01 -0.49539E+01 -0.36225E+01      982.00
  0.81353E+00  0.71082E+02    0.42500E+00  0.42500E+00 -0.85000E+00  0.00000E+00  0.00000E+00  0.00000E+00    0.12882E+02  0.32559E+02 -0.45441E+02 -0.11366E+01 -0.49284E+01 -0.36302E+01      982.00
  0.83750E+00  0.71151E+02    0.43750E+00  0.43750E+00 -0.87500E+00  0.00000E+00  0.00000E+00  0.00000E+00    0.12869E+02  0.32611E+02 -0.45480E+02 -0.11806E+01 -0.48978E+01 -0.36488E+01      982.00
  0.86147E+00  0.71142E+02    0.45000E+00  0.45000E+00 -0.90000E+00  0.00000E+00  0.00000E+00  0.00000E+00    0.12856E+02  0.32620E+02 -0.45477E+02 -0.11920E+01 -0.48608E+01 -0.36413E+01      982.00
  0.88544E+00  0.71135E+02    0.46250E+00  0.46250E+00 -0.92500E+00  0.00000E+00  0.00000E+00  0.00000E+00    0.12838E+02  0.32634E+02 -0.45472E+02 -0.12175E+01 -0.48205E+01 -0.36466E+01      982.00
  0.90941E+00  0.71129E+02    0.47500E+00  0.47500E+00 -0.95000E+00  0.00000E+00  0.00000E+00  0.00000E+00    0.12819E+02  0.32647E+02 -0.45466E+02 -0.12420E+01 -0.47815E+01 -0.36547E+01      982.00
  0.93338E+00  0.71122E+02    0.48750E+00  0.48750E+00 -0.97500E+00  0.00000E+00  0.00000E+00  0.00000E+00    0.12800E+02  0.32660E+02 -0.45460E+02 -0.12655E+01 -0.47436E+01 -0.36658E+01      982.00
  0.95735E+00  0.71115E+02    0.50000E+00  0.50000E+00 -0.10000E+01  0.00000E+00  0.00000E+00  0.00000E+00    0.12781E+02  0.32672E+02 -0.45453E+02 -0.12883E+01 -0.47067E+01 -0.36796E+01      982.00
