          Evm          Svm            E11          E22          E33          E23          E13          E12         SDEV11       SDEV22       SDEV33       SDEV23       SDEV13       SDEV12      TEMP
  0.00000E+00  0.62534E+02    0.00000E+00  0.00000E+00  0.00000E+00  0.00000E+00  0.00000E+00  0.00000E+00    0.21180E+02  0.19719E+02 -0.40899E+02 -0.37353E+01  0.20313E+01  0.55080E+01      982.00
  0.24526E-01  0.62767E+02    0.12500E-01  0.12500E-01 -0.25000E-01  0.00000E+00  0.00000E+00  0.00000E+00    0.22045E+02  0.18997E+02 -0.41042E+02 -0.36184E+01  0.16226E+01  0.56461E+01      982.00
  0.49046E-01  0.62891E+02    0.25000E-01  0.25000E-01 -0.50000E-01  0.00000E+00  0.00000E+00  0.00000E+00    0.22746E+02  0.18370E+02 -0.41116E+02 -0.33950E+01  0.13931E+01  0.56795E+01      982.00
  0.73563E-01  0.62978E+02    0.37500E-01  0.37500E-01 -0.75000E-01  0.00000E+00  0.00000E+00  0.00000E+00    0.23304E+02  0.17866E+02 -0.41170E+02 -0.31180E+01  0.13307E+01  0.56524E+01      982.00
  0.98077E-01  0.63065E+02    0.50000E-01  0.50000E-01 -0.10000E+00  0.00000E+00  0.00000E+00  0.00000E+00    0.23760E+02  0.17464E+02 -0.41224E+02 -0.28443E+01  0.13680E+01  0.55970E+01      982.00
  0.12259E+00  0.63167E+02    0.62500E-01  0.62500E-01 -0.12500E+00  0.00000E+00  0.00000E+00  0.00000E+00    0.24122E+02  0.17163E+02 -0.41285E+02 -0.25989E+01  0.14577E+01  0.55396E+01      982.00
  0.14710E+00  0.63298E+02    0.75000E-01  0.75000E-01 -0.15000E+00  0.00000E+00  0.00000E+00  0.00000E+00    0.24445E+02  0.16917E+02 -0.41362E+02 -0.23928E+01  0.15572E+01  0.54857E+01      982.00
  0.17160E+00  0.63457E+02    0.87500E-01  0.87500E-01 -0.17500E+00  0.00000E+00  0.00000E+00  0.00000E+00    0.24716E+02  0.16739E+02 -0.41455E+02 -0.22222E+01  0.16587E+01  0.54588E+01      982.00
  0.19610E+00  0.63643E+02    0.10000E+00  0.10000E+00 -0.20000E+00  0.00000E+00  0.00000E+00  0.00000E+00    0.24967E+02  0.16595E+02 -0.41562E+02 -0.20856E+01  0.17497E+01  0.54448E+01      982.00
  0.22059E+00  0.63866E+02    0.11250E+00  0.11250E+00 -0.22500E+00  0.00000E+00  0.00000E+00  0.00000E+00    0.25193E+02  0.16498E+02 -0.41691E+02 -0.19774E+01  0.18354E+01  0.54601E+01      982.00
  0.24507E+00  0.64116E+02    0.12500E+00  0.12500E+00 -0.25000E+00  0.00000E+00  0.00000E+00  0.00000E+00    0.25406E+02  0.16432E+02 -0.41837E+02 -0.18927E+01  0.19130E+01  0.54932E+01      982.00
  0.26954E+00  0.64397E+02    0.13750E+00  0.13750E+00 -0.27500E+00  0.00000E+00  0.00000E+00  0.00000E+00    0.25620E+02  0.16380E+02 -0.42000E+02 -0.18256E+01  0.19825E+01  0.55436E+01      982.00
  0.29400E+00  0.64661E+02    0.15000E+00  0.15000E+00 -0.30000E+00  0.00000E+00  0.00000E+00  0.00000E+00    0.25797E+02  0.16357E+02 -0.42154E+02 -0.17756E+01  0.20439E+01  0.55976E+01      982.00
  0.31845E+00  0.64957E+02    0.16250E+00  0.16250E+00 -0.32500E+00  0.00000E+00  0.00000E+00  0.00000E+00    0.25983E+02  0.16344E+02 -0.42326E+02 -0.17340E+01  0.21021E+01  0.56712E+01      982.00
  0.34288E+00  0.65274E+02    0.17500E+00  0.17500E+00 -0.35000E+00  0.00000E+00  0.00000E+00  0.00000E+00    0.26166E+02  0.16345E+02 -0.42511E+02 -0.16964E+01  0.21591E+01  0.57603E+01      982.00
  0.36730E+00  0.65563E+02    0.18750E+00  0.18750E+00 -0.37500E+00  0.00000E+00  0.00000E+00  0.00000E+00    0.26321E+02  0.16360E+02 -0.42680E+02 -0.16689E+01  0.22111E+01  0.58443E+01      982.00
  0.39172E+00  0.65844E+02    0.20000E+00  0.20000E+00 -0.40000E+00  0.00000E+00  0.00000E+00  0.00000E+00    0.26464E+02  0.16380E+02 -0.42844E+02 -0.16441E+01  0.22613E+01  0.59329E+01      982.00
  0.41612E+00  0.66114E+02    0.21250E+00  0.21250E+00 -0.42500E+00  0.00000E+00  0.00000E+00  0.00000E+00    0.26598E+02  0.16402E+02 -0.43000E+02 -0.16206E+01  0.23104E+01  0.60256E+01      982.00
  0.44051E+00  0.66372E+02    0.22500E+00  0.22500E+00 -0.45000E+00  0.00000E+00  0.00000E+00  0.00000E+00    0.26723E+02  0.16425E+02 -0.43148E+02 -0.15970E+01  0.23590E+01  0.61221E+01      982.00
  0.46488E+00  0.66615E+02    0.23750E+00  0.23750E+00 -0.47500E+00  0.00000E+00  0.00000E+00  0.00000E+00    0.26839E+02  0.16446E+02 -0.43285E+02 -0.15727E+01  0.24078E+01  0.62223E+01      982.00
  0.48925E+00  0.66845E+02    0.25000E+00  0.25000E+00 -0.50000E+00  0.00000E+00  0.00000E+00  0.00000E+00    0.26947E+02  0.16466E+02 -0.43413E+02 -0.15471E+01  0.24576E+01  0.63262E+01      982.00
  0.51361E+00  0.67062E+02    0.26250E+00  0.26250E+00 -0.52500E+00  0.00000E+00  0.00000E+00  0.00000E+00    0.27047E+02  0.16482E+02 -0.43530E+02 -0.15168E+01  0.25061E+01  0.64405E+01      982.00
  0.53795E+00  0.67262E+02    0.27500E+00  0.27500E+00 -0.55000E+00  0.00000E+00  0.00000E+00  0.00000E+00    0.27138E+02  0.16497E+02 -0.43636E+02 -0.14868E+01  0.25589E+01  0.65519E+01      982.00
  0.56227E+00  0.67447E+02    0.28750E+00  0.28750E+00 -0.57500E+00  0.00000E+00  0.00000E+00  0.00000E+00    0.27223E+02  0.16508E+02 -0.43730E+02 -0.14561E+01  0.26142E+01  0.66666E+01      982.00
  0.58659E+00  0.67619E+02    0.30000E+00  0.30000E+00 -0.60000E+00  0.00000E+00  0.00000E+00  0.00000E+00    0.27301E+02  0.16514E+02 -0.43815E+02 -0.14234E+01  0.26712E+01  0.67857E+01      982.00
  0.61089E+00  0.67778E+02    0.31250E+00  0.31250E+00 -0.62500E+00  0.00000E+00  0.00000E+00  0.00000E+00    0.27374E+02  0.16515E+02 -0.43889E+02 -0.13897E+01  0.27299E+01  0.69092E+01      982.00
  0.63517E+00  0.67925E+02    0.32500E+00  0.32500E+00 -0.65000E+00  0.00000E+00  0.00000E+00  0.00000E+00    0.27442E+02  0.16511E+02 -0.43953E+02 -0.13557E+01  0.27897E+01  0.70372E+01      982.00
  0.65944E+00  0.68039E+02    0.33750E+00  0.33750E+00 -0.67500E+00  0.00000E+00  0.00000E+00  0.00000E+00    0.27511E+02  0.16486E+02 -0.43997E+02 -0.13378E+01  0.28443E+01  0.71451E+01      982.00
  0.68368E+00  0.68181E+02    0.35000E+00  0.35000E+00 -0.70000E+00  0.00000E+00  0.00000E+00  0.00000E+00    0.27573E+02  0.16475E+02 -0.44049E+02 -0.12983E+01  0.29099E+01  0.73076E+01      982.00
  0.70791E+00  0.68291E+02    0.36250E+00  0.36250E+00 -0.72500E+00  0.00000E+00  0.00000E+00  0.00000E+00    0.27628E+02  0.16453E+02 -0.44082E+02 -0.12694E+01  0.29664E+01  0.74510E+01      982.00
  0.73212E+00  0.68389E+02    0.37500E+00  0.37500E+00 -0.75000E+00  0.00000E+00  0.00000E+00  0.00000E+00    0.27680E+02  0.16425E+02 -0.44105E+02 -0.12455E+01  0.30186E+01  0.75986E+01      982.00
  0.75630E+00  0.68476E+02    0.38750E+00  0.38750E+00 -0.77500E+00  0.00000E+00  0.00000E+00  0.00000E+00    0.27728E+02  0.16391E+02 -0.44119E+02 -0.12278E+01  0.30644E+01  0.77507E+01      982.00
  0.78046E+00  0.68552E+02    0.40000E+00  0.40000E+00 -0.80000E+00  0.00000E+00  0.00000E+00  0.00000E+00    0.27771E+02  0.16353E+02 -0.44124E+02 -0.12181E+01  0.31016E+01  0.79073E+01      982.00
  0.80460E+00  0.68626E+02    0.41250E+00  0.41250E+00 -0.82500E+00  0.00000E+00  0.00000E+00  0.00000E+00    0.27807E+02  0.16316E+02 -0.44123E+02 -0.12115E+01  0.31283E+01  0.80881E+01      982.00
  0.82871E+00  0.68681E+02    0.42500E+00  0.42500E+00 -0.85000E+00  0.00000E+00  0.00000E+00  0.00000E+00    0.27839E+02  0.16274E+02 -0.44113E+02 -0.12255E+01  0.31373E+01  0.82542E+01      982.00
  0.85280E+00  0.68729E+02    0.43750E+00  0.43750E+00 -0.87500E+00  0.00000E+00  0.00000E+00  0.00000E+00    0.27866E+02  0.16231E+02 -0.44097E+02 -0.12541E+01  0.31302E+01  0.84237E+01      982.00
  0.87686E+00  0.68764E+02    0.45000E+00  0.45000E+00 -0.90000E+00  0.00000E+00  0.00000E+00  0.00000E+00    0.27886E+02  0.16190E+02 -0.44076E+02 -0.12917E+01  0.31182E+01  0.85780E+01      982.00
  0.90089E+00  0.68798E+02    0.46250E+00  0.46250E+00 -0.92500E+00  0.00000E+00  0.00000E+00  0.00000E+00    0.27893E+02  0.16159E+02 -0.44052E+02 -0.13349E+01  0.30971E+01  0.87466E+01      982.00
  0.92491E+00  0.68793E+02    0.47500E+00  0.47500E+00 -0.95000E+00  0.00000E+00  0.00000E+00  0.00000E+00    0.27868E+02  0.16135E+02 -0.44004E+02 -0.13837E+01  0.30493E+01  0.89217E+01      982.00
  0.94889E+00  0.68789E+02    0.48750E+00  0.48750E+00 -0.97500E+00  0.00000E+00  0.00000E+00  0.00000E+00    0.27828E+02  0.16131E+02 -0.43959E+02 -0.14407E+01  0.29920E+01  0.90985E+01      982.00
  0.97286E+00  0.68787E+02    0.50000E+00  0.50000E+00 -0.10000E+01  0.00000E+00  0.00000E+00  0.00000E+00    0.27780E+02  0.16137E+02 -0.43917E+02 -0.15086E+01  0.29165E+01  0.92724E+01      982.00
