          Evm          Svm            E11          E22          E33          E23          E13          E12         SDEV11       SDEV22       SDEV33       SDEV23       SDEV13       SDEV12      TEMP
  0.00000E+00  0.61168E+02    0.00000E+00  0.00000E+00  0.00000E+00  0.00000E+00  0.00000E+00  0.00000E+00    0.16784E+02  0.19208E+02 -0.35993E+02  0.48846E+01 -0.53804E+01  0.14876E+02      982.00
  0.22066E-01  0.61242E+02    0.12500E-01  0.12500E-01 -0.25000E-01  0.00000E+00  0.00000E+00  0.00000E+00    0.16862E+02  0.19333E+02 -0.36195E+02  0.49942E+01 -0.54084E+01  0.14556E+02      982.00
  0.44229E-01  0.61329E+02    0.25000E-01  0.25000E-01 -0.50000E-01  0.00000E+00  0.00000E+00  0.00000E+00    0.16952E+02  0.19447E+02 -0.36398E+02  0.50555E+01 -0.53912E+01  0.14281E+02      982.00
  0.66485E-01  0.61438E+02    0.37500E-01  0.37500E-01 -0.75000E-01  0.00000E+00  0.00000E+00  0.00000E+00    0.17033E+02  0.19568E+02 -0.36602E+02  0.50828E+01 -0.53469E+01  0.14050E+02      982.00
  0.88826E-01  0.61563E+02    0.50000E-01  0.50000E-01 -0.10000E+00  0.00000E+00  0.00000E+00  0.00000E+00    0.17107E+02  0.19694E+02 -0.36801E+02  0.50842E+01 -0.52848E+01  0.13861E+02      982.00
  0.11124E+00  0.61733E+02    0.62500E-01  0.62500E-01 -0.12500E+00  0.00000E+00  0.00000E+00  0.00000E+00    0.17189E+02  0.19825E+02 -0.37014E+02  0.50619E+01 -0.52108E+01  0.13722E+02      982.00
  0.13373E+00  0.61930E+02    0.75000E-01  0.75000E-01 -0.15000E+00  0.00000E+00  0.00000E+00  0.00000E+00    0.17270E+02  0.19960E+02 -0.37230E+02  0.50287E+01 -0.51328E+01  0.13617E+02      982.00
  0.15627E+00  0.62175E+02    0.87500E-01  0.87500E-01 -0.17500E+00  0.00000E+00  0.00000E+00  0.00000E+00    0.17368E+02  0.20098E+02 -0.37467E+02  0.49857E+01 -0.50564E+01  0.13545E+02      982.00
  0.17887E+00  0.62416E+02    0.10000E+00  0.10000E+00 -0.20000E+00  0.00000E+00  0.00000E+00  0.00000E+00    0.17464E+02  0.20223E+02 -0.37687E+02  0.49433E+01 -0.49879E+01  0.13496E+02      982.00
  0.20151E+00  0.62697E+02    0.11250E+00  0.11250E+00 -0.22500E+00  0.00000E+00  0.00000E+00  0.00000E+00    0.17574E+02  0.20352E+02 -0.37926E+02  0.48993E+01 -0.49229E+01  0.13466E+02      982.00
  0.22420E+00  0.62962E+02    0.12500E+00  0.12500E+00 -0.25000E+00  0.00000E+00  0.00000E+00  0.00000E+00    0.17680E+02  0.20467E+02 -0.38147E+02  0.48602E+01 -0.48679E+01  0.13445E+02      982.00
  0.24692E+00  0.63249E+02    0.13750E+00  0.13750E+00 -0.27500E+00  0.00000E+00  0.00000E+00  0.00000E+00    0.17796E+02  0.20581E+02 -0.38377E+02  0.48237E+01 -0.48192E+01  0.13434E+02      982.00
  0.26967E+00  0.63541E+02    0.15000E+00  0.15000E+00 -0.30000E+00  0.00000E+00  0.00000E+00  0.00000E+00    0.17916E+02  0.20690E+02 -0.38605E+02  0.47917E+01 -0.47784E+01  0.13428E+02      982.00
  0.29245E+00  0.63835E+02    0.16250E+00  0.16250E+00 -0.32500E+00  0.00000E+00  0.00000E+00  0.00000E+00    0.18039E+02  0.20792E+02 -0.38831E+02  0.47613E+01 -0.47418E+01  0.13430E+02      982.00
  0.31526E+00  0.64132E+02    0.17500E+00  0.17500E+00 -0.35000E+00  0.00000E+00  0.00000E+00  0.00000E+00    0.18168E+02  0.20887E+02 -0.39055E+02  0.47342E+01 -0.47104E+01  0.13436E+02      982.00
  0.33810E+00  0.64414E+02    0.18750E+00  0.18750E+00 -0.37500E+00  0.00000E+00  0.00000E+00  0.00000E+00    0.18295E+02  0.20975E+02 -0.39270E+02  0.47111E+01 -0.46857E+01  0.13436E+02      982.00
  0.36096E+00  0.64684E+02    0.20000E+00  0.20000E+00 -0.40000E+00  0.00000E+00  0.00000E+00  0.00000E+00    0.18419E+02  0.21055E+02 -0.39475E+02  0.46883E+01 -0.46647E+01  0.13436E+02      982.00
  0.38385E+00  0.64946E+02    0.21250E+00  0.21250E+00 -0.42500E+00  0.00000E+00  0.00000E+00  0.00000E+00    0.18544E+02  0.21130E+02 -0.39674E+02  0.46677E+01 -0.46469E+01  0.13433E+02      982.00
  0.40676E+00  0.65193E+02    0.22500E+00  0.22500E+00 -0.45000E+00  0.00000E+00  0.00000E+00  0.00000E+00    0.18665E+02  0.21197E+02 -0.39861E+02  0.46483E+01 -0.46309E+01  0.13430E+02      982.00
  0.42968E+00  0.65429E+02    0.23750E+00  0.23750E+00 -0.47500E+00  0.00000E+00  0.00000E+00  0.00000E+00    0.18782E+02  0.21259E+02 -0.40041E+02  0.46286E+01 -0.46176E+01  0.13425E+02      982.00
  0.45263E+00  0.65655E+02    0.25000E+00  0.25000E+00 -0.50000E+00  0.00000E+00  0.00000E+00  0.00000E+00    0.18899E+02  0.21315E+02 -0.40214E+02  0.46091E+01 -0.46039E+01  0.13419E+02      982.00
  0.47560E+00  0.65860E+02    0.26250E+00  0.26250E+00 -0.52500E+00  0.00000E+00  0.00000E+00  0.00000E+00    0.19009E+02  0.21364E+02 -0.40373E+02  0.45885E+01 -0.45905E+01  0.13409E+02      982.00
  0.49859E+00  0.66062E+02    0.27500E+00  0.27500E+00 -0.55000E+00  0.00000E+00  0.00000E+00  0.00000E+00    0.19118E+02  0.21412E+02 -0.40530E+02  0.45685E+01 -0.45791E+01  0.13400E+02      982.00
  0.52160E+00  0.66246E+02    0.28750E+00  0.28750E+00 -0.57500E+00  0.00000E+00  0.00000E+00  0.00000E+00    0.19222E+02  0.21453E+02 -0.40674E+02  0.45474E+01 -0.45664E+01  0.13389E+02      982.00
  0.54462E+00  0.66414E+02    0.30000E+00  0.30000E+00 -0.60000E+00  0.00000E+00  0.00000E+00  0.00000E+00    0.19319E+02  0.21488E+02 -0.40806E+02  0.45254E+01 -0.45542E+01  0.13380E+02      982.00
  0.56766E+00  0.66579E+02    0.31250E+00  0.31250E+00 -0.62500E+00  0.00000E+00  0.00000E+00  0.00000E+00    0.19415E+02  0.21522E+02 -0.40937E+02  0.45042E+01 -0.45425E+01  0.13366E+02      982.00
  0.59072E+00  0.66722E+02    0.32500E+00  0.32500E+00 -0.65000E+00  0.00000E+00  0.00000E+00  0.00000E+00    0.19503E+02  0.21550E+02 -0.41053E+02  0.44816E+01 -0.45289E+01  0.13352E+02      982.00
  0.61379E+00  0.66860E+02    0.33750E+00  0.33750E+00 -0.67500E+00  0.00000E+00  0.00000E+00  0.00000E+00    0.19588E+02  0.21576E+02 -0.41164E+02  0.44592E+01 -0.45161E+01  0.13340E+02      982.00
  0.63688E+00  0.66988E+02    0.35000E+00  0.35000E+00 -0.70000E+00  0.00000E+00  0.00000E+00  0.00000E+00    0.19670E+02  0.21599E+02 -0.41269E+02  0.44358E+01 -0.45033E+01  0.13325E+02      982.00
  0.65998E+00  0.67112E+02    0.36250E+00  0.36250E+00 -0.72500E+00  0.00000E+00  0.00000E+00  0.00000E+00    0.19758E+02  0.21613E+02 -0.41371E+02  0.44100E+01 -0.44863E+01  0.13314E+02      982.00
  0.68310E+00  0.67220E+02    0.37500E+00  0.37500E+00 -0.75000E+00  0.00000E+00  0.00000E+00  0.00000E+00    0.19822E+02  0.21638E+02 -0.41460E+02  0.43913E+01 -0.44771E+01  0.13298E+02      982.00
  0.70623E+00  0.67324E+02    0.38750E+00  0.38750E+00 -0.77500E+00  0.00000E+00  0.00000E+00  0.00000E+00    0.19899E+02  0.21648E+02 -0.41547E+02  0.43640E+01 -0.44595E+01  0.13287E+02      982.00
  0.72937E+00  0.67418E+02    0.40000E+00  0.40000E+00 -0.80000E+00  0.00000E+00  0.00000E+00  0.00000E+00    0.19964E+02  0.21661E+02 -0.41625E+02  0.43416E+01 -0.44465E+01  0.13274E+02      982.00
  0.75253E+00  0.67498E+02    0.41250E+00  0.41250E+00 -0.82500E+00  0.00000E+00  0.00000E+00  0.00000E+00    0.20019E+02  0.21673E+02 -0.41692E+02  0.43239E+01 -0.44385E+01  0.13264E+02      982.00
  0.77569E+00  0.67577E+02    0.42500E+00  0.42500E+00 -0.85000E+00  0.00000E+00  0.00000E+00  0.00000E+00    0.20075E+02  0.21685E+02 -0.41760E+02  0.43038E+01 -0.44266E+01  0.13249E+02      982.00
  0.79886E+00  0.67653E+02    0.43750E+00  0.43750E+00 -0.87500E+00  0.00000E+00  0.00000E+00  0.00000E+00    0.20129E+02  0.21695E+02 -0.41825E+02  0.42824E+01 -0.44124E+01  0.13238E+02      982.00
  0.82205E+00  0.67724E+02    0.45000E+00  0.45000E+00 -0.90000E+00  0.00000E+00  0.00000E+00  0.00000E+00    0.20181E+02  0.21705E+02 -0.41886E+02  0.42619E+01 -0.43992E+01  0.13226E+02      982.00
  0.84524E+00  0.67789E+02    0.46250E+00  0.46250E+00 -0.92500E+00  0.00000E+00  0.00000E+00  0.00000E+00    0.20229E+02  0.21714E+02 -0.41942E+02  0.42424E+01 -0.43875E+01  0.13214E+02      982.00
  0.86844E+00  0.67850E+02    0.47500E+00  0.47500E+00 -0.95000E+00  0.00000E+00  0.00000E+00  0.00000E+00    0.20274E+02  0.21722E+02 -0.41996E+02  0.42236E+01 -0.43758E+01  0.13202E+02      982.00
  0.89165E+00  0.67905E+02    0.48750E+00  0.48750E+00 -0.97500E+00  0.00000E+00  0.00000E+00  0.00000E+00    0.20316E+02  0.21729E+02 -0.42045E+02  0.42057E+01 -0.43645E+01  0.13190E+02      982.00
  0.91487E+00  0.67961E+02    0.50000E+00  0.50000E+00 -0.10000E+01  0.00000E+00  0.00000E+00  0.00000E+00    0.20357E+02  0.21736E+02 -0.42093E+02  0.41878E+01 -0.43523E+01  0.13182E+02      982.00
