          Evm          Svm            E11          E22          E33          E23          E13          E12         SDEV11       SDEV22       SDEV33       SDEV23       SDEV13       SDEV12      TEMP
  0.00000E+00  0.54022E+02    0.00000E+00  0.00000E+00  0.00000E+00  0.00000E+00  0.00000E+00  0.00000E+00    0.19855E+02  0.13101E+02 -0.32957E+02  0.60026E+01  0.67437E+01 -0.80793E+01      982.00
  0.22877E-01  0.54467E+02    0.12500E-01  0.12500E-01 -0.25000E-01  0.00000E+00  0.00000E+00  0.00000E+00    0.19922E+02  0.13301E+02 -0.33223E+02  0.60772E+01  0.67556E+01 -0.82179E+01      982.00
  0.45751E-01  0.54879E+02    0.25000E-01  0.25000E-01 -0.50000E-01  0.00000E+00  0.00000E+00  0.00000E+00    0.20022E+02  0.13467E+02 -0.33488E+02  0.61129E+01  0.67397E+01 -0.83226E+01      982.00
  0.68634E-01  0.55274E+02    0.37500E-01  0.37500E-01 -0.75000E-01  0.00000E+00  0.00000E+00  0.00000E+00    0.20135E+02  0.13618E+02 -0.33753E+02  0.61225E+01  0.67127E+01 -0.84140E+01      982.00
  0.91534E-01  0.55682E+02    0.50000E-01  0.50000E-01 -0.10000E+00  0.00000E+00  0.00000E+00  0.00000E+00    0.20263E+02  0.13762E+02 -0.34025E+02  0.61195E+01  0.66821E+01 -0.85188E+01      982.00
  0.11445E+00  0.56110E+02    0.62500E-01  0.62500E-01 -0.12500E+00  0.00000E+00  0.00000E+00  0.00000E+00    0.20416E+02  0.13900E+02 -0.34316E+02  0.60964E+01  0.66463E+01 -0.86198E+01      982.00
  0.13738E+00  0.56515E+02    0.75000E-01  0.75000E-01 -0.15000E+00  0.00000E+00  0.00000E+00  0.00000E+00    0.20575E+02  0.14026E+02 -0.34601E+02  0.60535E+01  0.66010E+01 -0.87056E+01      982.00
  0.16034E+00  0.56933E+02    0.87500E-01  0.87500E-01 -0.17500E+00  0.00000E+00  0.00000E+00  0.00000E+00    0.20742E+02  0.14153E+02 -0.34894E+02  0.60046E+01  0.65538E+01 -0.87953E+01      982.00
  0.18333E+00  0.57310E+02    0.10000E+00  0.10000E+00 -0.20000E+00  0.00000E+00  0.00000E+00  0.00000E+00    0.20881E+02  0.14292E+02 -0.35173E+02  0.59556E+01  0.64948E+01 -0.88575E+01      982.00
  0.20634E+00  0.57748E+02    0.11250E+00  0.11250E+00 -0.22500E+00  0.00000E+00  0.00000E+00  0.00000E+00    0.21046E+02  0.14434E+02 -0.35480E+02  0.59063E+01  0.64439E+01 -0.89539E+01      982.00
  0.22938E+00  0.58192E+02    0.12500E+00  0.12500E+00 -0.25000E+00  0.00000E+00  0.00000E+00  0.00000E+00    0.21212E+02  0.14578E+02 -0.35790E+02  0.58535E+01  0.63943E+01 -0.90521E+01      982.00
  0.25244E+00  0.58718E+02    0.13750E+00  0.13750E+00 -0.27500E+00  0.00000E+00  0.00000E+00  0.00000E+00    0.21397E+02  0.14749E+02 -0.36146E+02  0.58059E+01  0.63519E+01 -0.91808E+01      982.00
  0.27553E+00  0.59183E+02    0.15000E+00  0.15000E+00 -0.30000E+00  0.00000E+00  0.00000E+00  0.00000E+00    0.21546E+02  0.14927E+02 -0.36473E+02  0.57557E+01  0.63021E+01 -0.92763E+01      982.00
  0.29864E+00  0.59655E+02    0.16250E+00  0.16250E+00 -0.32500E+00  0.00000E+00  0.00000E+00  0.00000E+00    0.21682E+02  0.15122E+02 -0.36804E+02  0.57113E+01  0.62568E+01 -0.93711E+01      982.00
  0.32177E+00  0.60126E+02    0.17500E+00  0.17500E+00 -0.35000E+00  0.00000E+00  0.00000E+00  0.00000E+00    0.21802E+02  0.15333E+02 -0.37136E+02  0.56696E+01  0.62149E+01 -0.94617E+01      982.00
  0.34493E+00  0.60560E+02    0.18750E+00  0.18750E+00 -0.37500E+00  0.00000E+00  0.00000E+00  0.00000E+00    0.21905E+02  0.15540E+02 -0.37445E+02  0.56259E+01  0.61760E+01 -0.95387E+01      982.00
  0.36812E+00  0.61002E+02    0.20000E+00  0.20000E+00 -0.40000E+00  0.00000E+00  0.00000E+00  0.00000E+00    0.22002E+02  0.15756E+02 -0.37758E+02  0.55854E+01  0.61462E+01 -0.96153E+01      982.00
  0.39133E+00  0.61456E+02    0.21250E+00  0.21250E+00 -0.42500E+00  0.00000E+00  0.00000E+00  0.00000E+00    0.22083E+02  0.15998E+02 -0.38081E+02  0.55450E+01  0.61181E+01 -0.96901E+01      982.00
  0.41457E+00  0.61891E+02    0.22500E+00  0.22500E+00 -0.45000E+00  0.00000E+00  0.00000E+00  0.00000E+00    0.22155E+02  0.16238E+02 -0.38392E+02  0.55025E+01  0.60940E+01 -0.97563E+01      982.00
  0.43783E+00  0.62318E+02    0.23750E+00  0.23750E+00 -0.47500E+00  0.00000E+00  0.00000E+00  0.00000E+00    0.22205E+02  0.16496E+02 -0.38701E+02  0.54608E+01  0.60737E+01 -0.98148E+01      982.00
  0.46112E+00  0.62728E+02    0.25000E+00  0.25000E+00 -0.50000E+00  0.00000E+00  0.00000E+00  0.00000E+00    0.22239E+02  0.16761E+02 -0.39000E+02  0.54185E+01  0.60565E+01 -0.98640E+01      982.00
  0.48443E+00  0.63121E+02    0.26250E+00  0.26250E+00 -0.52500E+00  0.00000E+00  0.00000E+00  0.00000E+00    0.22259E+02  0.17032E+02 -0.39291E+02  0.53741E+01  0.60410E+01 -0.99033E+01      982.00
  0.50778E+00  0.63495E+02    0.27500E+00  0.27500E+00 -0.55000E+00  0.00000E+00  0.00000E+00  0.00000E+00    0.22264E+02  0.17306E+02 -0.39569E+02  0.53291E+01  0.60296E+01 -0.99342E+01      982.00
  0.53115E+00  0.63851E+02    0.28750E+00  0.28750E+00 -0.57500E+00  0.00000E+00  0.00000E+00  0.00000E+00    0.22255E+02  0.17582E+02 -0.39837E+02  0.52825E+01  0.60204E+01 -0.99559E+01      982.00
  0.55454E+00  0.64186E+02    0.30000E+00  0.30000E+00 -0.60000E+00  0.00000E+00  0.00000E+00  0.00000E+00    0.22234E+02  0.17858E+02 -0.40093E+02  0.52339E+01  0.60135E+01 -0.99689E+01      982.00
  0.57797E+00  0.64503E+02    0.31250E+00  0.31250E+00 -0.62500E+00  0.00000E+00  0.00000E+00  0.00000E+00    0.22202E+02  0.18135E+02 -0.40337E+02  0.51837E+01  0.60080E+01 -0.99734E+01      982.00
  0.60142E+00  0.64801E+02    0.32500E+00  0.32500E+00 -0.65000E+00  0.00000E+00  0.00000E+00  0.00000E+00    0.22160E+02  0.18410E+02 -0.40570E+02  0.51319E+01  0.60040E+01 -0.99698E+01      982.00
  0.62489E+00  0.65062E+02    0.33750E+00  0.33750E+00 -0.67500E+00  0.00000E+00  0.00000E+00  0.00000E+00    0.22097E+02  0.18682E+02 -0.40779E+02  0.50814E+01  0.60008E+01 -0.99549E+01      982.00
  0.64840E+00  0.65325E+02    0.35000E+00  0.35000E+00 -0.70000E+00  0.00000E+00  0.00000E+00  0.00000E+00    0.22039E+02  0.18951E+02 -0.40989E+02  0.50263E+01  0.59989E+01 -0.99370E+01      982.00
  0.67193E+00  0.65571E+02    0.36250E+00  0.36250E+00 -0.72500E+00  0.00000E+00  0.00000E+00  0.00000E+00    0.21973E+02  0.19216E+02 -0.41188E+02  0.49696E+01  0.59983E+01 -0.99125E+01      982.00
  0.69548E+00  0.65800E+02    0.37500E+00  0.37500E+00 -0.75000E+00  0.00000E+00  0.00000E+00  0.00000E+00    0.21900E+02  0.19476E+02 -0.41376E+02  0.49117E+01  0.59985E+01 -0.98820E+01      982.00
  0.71906E+00  0.66009E+02    0.38750E+00  0.38750E+00 -0.77500E+00  0.00000E+00  0.00000E+00  0.00000E+00    0.21797E+02  0.19759E+02 -0.41556E+02  0.48478E+01  0.60003E+01 -0.98312E+01      982.00
  0.74267E+00  0.66206E+02    0.40000E+00  0.40000E+00 -0.80000E+00  0.00000E+00  0.00000E+00  0.00000E+00    0.21713E+02  0.20010E+02 -0.41723E+02  0.47873E+01  0.60017E+01 -0.97890E+01      982.00
  0.76631E+00  0.66389E+02    0.41250E+00  0.41250E+00 -0.82500E+00  0.00000E+00  0.00000E+00  0.00000E+00    0.21625E+02  0.20254E+02 -0.41879E+02  0.47258E+01  0.60041E+01 -0.97425E+01      982.00
  0.78996E+00  0.66559E+02    0.42500E+00  0.42500E+00 -0.85000E+00  0.00000E+00  0.00000E+00  0.00000E+00    0.21533E+02  0.20493E+02 -0.42026E+02  0.46636E+01  0.60072E+01 -0.96916E+01      982.00
  0.81364E+00  0.66716E+02    0.43750E+00  0.43750E+00 -0.87500E+00  0.00000E+00  0.00000E+00  0.00000E+00    0.21437E+02  0.20727E+02 -0.42164E+02  0.46011E+01  0.60108E+01 -0.96367E+01      982.00
  0.83734E+00  0.66861E+02    0.45000E+00  0.45000E+00 -0.90000E+00  0.00000E+00  0.00000E+00  0.00000E+00    0.21338E+02  0.20956E+02 -0.42294E+02  0.45383E+01  0.60151E+01 -0.95781E+01      982.00
  0.86106E+00  0.66995E+02    0.46250E+00  0.46250E+00 -0.92500E+00  0.00000E+00  0.00000E+00  0.00000E+00    0.21235E+02  0.21179E+02 -0.42415E+02  0.44753E+01  0.60199E+01 -0.95161E+01      982.00
  0.88480E+00  0.67060E+02    0.47500E+00  0.47500E+00 -0.95000E+00  0.00000E+00  0.00000E+00  0.00000E+00    0.21154E+02  0.21340E+02 -0.42494E+02  0.44018E+01  0.59889E+01 -0.94591E+01      982.00
  0.90856E+00  0.67110E+02    0.48750E+00  0.48750E+00 -0.97500E+00  0.00000E+00  0.00000E+00  0.00000E+00    0.21044E+02  0.21522E+02 -0.42566E+02  0.43228E+01  0.59660E+01 -0.93808E+01      982.00
  0.93235E+00  0.67161E+02    0.50000E+00  0.50000E+00 -0.10000E+01  0.00000E+00  0.00000E+00  0.00000E+00    0.20931E+02  0.21706E+02 -0.42638E+02  0.42480E+01  0.59460E+01 -0.93004E+01      982.00
