          Evm          Svm            E11          E22          E33          E23          E13          E12         SDEV11       SDEV22       SDEV33       SDEV23       SDEV13       SDEV12      TEMP
  0.00000E+00  0.53639E+02    0.00000E+00  0.00000E+00  0.00000E+00  0.00000E+00  0.00000E+00  0.00000E+00    0.18679E+02  0.14309E+02 -0.32987E+02  0.69203E+01  0.59582E+01 -0.74005E+01      982.00
  0.23062E-01  0.54094E+02    0.12500E-01  0.12500E-01 -0.25000E-01  0.00000E+00  0.00000E+00  0.00000E+00    0.18978E+02  0.14256E+02 -0.33235E+02  0.68811E+01  0.60684E+01 -0.75655E+01      982.00
  0.46101E-01  0.54509E+02    0.25000E-01  0.25000E-01 -0.50000E-01  0.00000E+00  0.00000E+00  0.00000E+00    0.19214E+02  0.14269E+02 -0.33483E+02  0.68634E+01  0.60976E+01 -0.76926E+01      982.00
  0.69136E-01  0.54905E+02    0.37500E-01  0.37500E-01 -0.75000E-01  0.00000E+00  0.00000E+00  0.00000E+00    0.19433E+02  0.14301E+02 -0.33734E+02  0.68347E+01  0.61009E+01 -0.78017E+01      982.00
  0.92176E-01  0.55289E+02    0.50000E-01  0.50000E-01 -0.10000E+00  0.00000E+00  0.00000E+00  0.00000E+00    0.19636E+02  0.14351E+02 -0.33987E+02  0.67952E+01  0.60874E+01 -0.78982E+01      982.00
  0.11523E+00  0.55671E+02    0.62500E-01  0.62500E-01 -0.12500E+00  0.00000E+00  0.00000E+00  0.00000E+00    0.19828E+02  0.14418E+02 -0.34246E+02  0.67483E+01  0.60652E+01 -0.79914E+01      982.00
  0.13830E+00  0.56052E+02    0.75000E-01  0.75000E-01 -0.15000E+00  0.00000E+00  0.00000E+00  0.00000E+00    0.20015E+02  0.14494E+02 -0.34509E+02  0.66886E+01  0.60397E+01 -0.80807E+01      982.00
  0.16138E+00  0.56446E+02    0.87500E-01  0.87500E-01 -0.17500E+00  0.00000E+00  0.00000E+00  0.00000E+00    0.20195E+02  0.14586E+02 -0.34781E+02  0.66273E+01  0.60117E+01 -0.81744E+01      982.00
  0.18449E+00  0.56851E+02    0.10000E+00  0.10000E+00 -0.20000E+00  0.00000E+00  0.00000E+00  0.00000E+00    0.20370E+02  0.14692E+02 -0.35062E+02  0.65626E+01  0.59829E+01 -0.82705E+01      982.00
  0.20762E+00  0.57270E+02    0.11250E+00  0.11250E+00 -0.22500E+00  0.00000E+00  0.00000E+00  0.00000E+00    0.20541E+02  0.14812E+02 -0.35353E+02  0.64966E+01  0.59546E+01 -0.83698E+01      982.00
  0.23077E+00  0.57700E+02    0.12500E+00  0.12500E+00 -0.25000E+00  0.00000E+00  0.00000E+00  0.00000E+00    0.20704E+02  0.14947E+02 -0.35651E+02  0.64302E+01  0.59273E+01 -0.84709E+01      982.00
  0.25394E+00  0.58133E+02    0.13750E+00  0.13750E+00 -0.27500E+00  0.00000E+00  0.00000E+00  0.00000E+00    0.20860E+02  0.15091E+02 -0.35951E+02  0.63613E+01  0.59031E+01 -0.85708E+01      982.00
  0.27713E+00  0.58578E+02    0.15000E+00  0.15000E+00 -0.30000E+00  0.00000E+00  0.00000E+00  0.00000E+00    0.21007E+02  0.15253E+02 -0.36259E+02  0.62954E+01  0.58828E+01 -0.86734E+01      982.00
  0.30034E+00  0.59062E+02    0.16250E+00  0.16250E+00 -0.32500E+00  0.00000E+00  0.00000E+00  0.00000E+00    0.21146E+02  0.15445E+02 -0.36591E+02  0.62307E+01  0.58683E+01 -0.87862E+01      982.00
  0.32357E+00  0.59552E+02    0.17500E+00  0.17500E+00 -0.35000E+00  0.00000E+00  0.00000E+00  0.00000E+00    0.21265E+02  0.15665E+02 -0.36930E+02  0.61719E+01  0.58557E+01 -0.88910E+01      982.00
  0.34683E+00  0.60007E+02    0.18750E+00  0.18750E+00 -0.37500E+00  0.00000E+00  0.00000E+00  0.00000E+00    0.21357E+02  0.15893E+02 -0.37251E+02  0.61155E+01  0.58396E+01 -0.89796E+01      982.00
  0.37011E+00  0.60429E+02    0.20000E+00  0.20000E+00 -0.40000E+00  0.00000E+00  0.00000E+00  0.00000E+00    0.21432E+02  0.16118E+02 -0.37550E+02  0.60620E+01  0.58216E+01 -0.90554E+01      982.00
  0.39341E+00  0.60856E+02    0.21250E+00  0.21250E+00 -0.42500E+00  0.00000E+00  0.00000E+00  0.00000E+00    0.21500E+02  0.16352E+02 -0.37852E+02  0.60111E+01  0.58117E+01 -0.91299E+01      982.00
  0.41673E+00  0.61287E+02    0.22500E+00  0.22500E+00 -0.45000E+00  0.00000E+00  0.00000E+00  0.00000E+00    0.21558E+02  0.16600E+02 -0.38158E+02  0.59566E+01  0.58056E+01 -0.92010E+01      982.00
  0.44008E+00  0.61710E+02    0.23750E+00  0.23750E+00 -0.47500E+00  0.00000E+00  0.00000E+00  0.00000E+00    0.21593E+02  0.16869E+02 -0.38462E+02  0.59020E+01  0.58037E+01 -0.92633E+01      982.00
  0.46345E+00  0.62126E+02    0.25000E+00  0.25000E+00 -0.50000E+00  0.00000E+00  0.00000E+00  0.00000E+00    0.21624E+02  0.17137E+02 -0.38761E+02  0.58444E+01  0.58043E+01 -0.93195E+01      982.00
  0.48685E+00  0.62519E+02    0.26250E+00  0.26250E+00 -0.52500E+00  0.00000E+00  0.00000E+00  0.00000E+00    0.21629E+02  0.17419E+02 -0.39048E+02  0.57875E+01  0.58078E+01 -0.93634E+01      982.00
  0.51027E+00  0.62894E+02    0.27500E+00  0.27500E+00 -0.55000E+00  0.00000E+00  0.00000E+00  0.00000E+00    0.21619E+02  0.17705E+02 -0.39324E+02  0.57298E+01  0.58130E+01 -0.93975E+01      982.00
  0.53372E+00  0.63245E+02    0.28750E+00  0.28750E+00 -0.57500E+00  0.00000E+00  0.00000E+00  0.00000E+00    0.21583E+02  0.18005E+02 -0.39588E+02  0.56724E+01  0.58185E+01 -0.94170E+01      982.00
  0.55719E+00  0.63585E+02    0.30000E+00  0.30000E+00 -0.60000E+00  0.00000E+00  0.00000E+00  0.00000E+00    0.21547E+02  0.18296E+02 -0.39844E+02  0.56120E+01  0.58264E+01 -0.94315E+01      982.00
  0.58069E+00  0.63906E+02    0.31250E+00  0.31250E+00 -0.62500E+00  0.00000E+00  0.00000E+00  0.00000E+00    0.21501E+02  0.18588E+02 -0.40088E+02  0.55498E+01  0.58353E+01 -0.94369E+01      982.00
  0.60421E+00  0.64209E+02    0.32500E+00  0.32500E+00 -0.65000E+00  0.00000E+00  0.00000E+00  0.00000E+00    0.21444E+02  0.18878E+02 -0.40322E+02  0.54861E+01  0.58449E+01 -0.94335E+01      982.00
  0.62776E+00  0.64477E+02    0.33750E+00  0.33750E+00 -0.67500E+00  0.00000E+00  0.00000E+00  0.00000E+00    0.21366E+02  0.19167E+02 -0.40532E+02  0.54245E+01  0.58540E+01 -0.94173E+01      982.00
  0.65134E+00  0.64746E+02    0.35000E+00  0.35000E+00 -0.70000E+00  0.00000E+00  0.00000E+00  0.00000E+00    0.21293E+02  0.19451E+02 -0.40744E+02  0.53579E+01  0.58644E+01 -0.93979E+01      982.00
  0.67494E+00  0.64998E+02    0.36250E+00  0.36250E+00 -0.72500E+00  0.00000E+00  0.00000E+00  0.00000E+00    0.21214E+02  0.19731E+02 -0.40945E+02  0.52898E+01  0.58753E+01 -0.93713E+01      982.00
  0.69856E+00  0.65234E+02    0.37500E+00  0.37500E+00 -0.75000E+00  0.00000E+00  0.00000E+00  0.00000E+00    0.21129E+02  0.20006E+02 -0.41135E+02  0.52206E+01  0.58864E+01 -0.93379E+01      982.00
  0.72221E+00  0.65454E+02    0.38750E+00  0.38750E+00 -0.77500E+00  0.00000E+00  0.00000E+00  0.00000E+00    0.21038E+02  0.20277E+02 -0.41315E+02  0.51504E+01  0.58975E+01 -0.92981E+01      982.00
  0.74588E+00  0.65655E+02    0.40000E+00  0.40000E+00 -0.80000E+00  0.00000E+00  0.00000E+00  0.00000E+00    0.20917E+02  0.20570E+02 -0.41487E+02  0.50726E+01  0.59109E+01 -0.92349E+01      982.00
  0.76957E+00  0.65845E+02    0.41250E+00  0.41250E+00 -0.82500E+00  0.00000E+00  0.00000E+00  0.00000E+00    0.20818E+02  0.20828E+02 -0.41646E+02  0.50006E+01  0.59219E+01 -0.91831E+01      982.00
  0.79329E+00  0.66022E+02    0.42500E+00  0.42500E+00 -0.85000E+00  0.00000E+00  0.00000E+00  0.00000E+00    0.20716E+02  0.21080E+02 -0.41796E+02  0.49280E+01  0.59331E+01 -0.91268E+01      982.00
  0.81703E+00  0.66187E+02    0.43750E+00  0.43750E+00 -0.87500E+00  0.00000E+00  0.00000E+00  0.00000E+00    0.20611E+02  0.21325E+02 -0.41937E+02  0.48552E+01  0.59442E+01 -0.90660E+01      982.00
  0.84079E+00  0.66340E+02    0.45000E+00  0.45000E+00 -0.90000E+00  0.00000E+00  0.00000E+00  0.00000E+00    0.20504E+02  0.21565E+02 -0.42069E+02  0.47824E+01  0.59554E+01 -0.90011E+01      982.00
  0.86457E+00  0.66481E+02    0.46250E+00  0.46250E+00 -0.92500E+00  0.00000E+00  0.00000E+00  0.00000E+00    0.20394E+02  0.21799E+02 -0.42193E+02  0.47096E+01  0.59665E+01 -0.89324E+01      982.00
  0.88837E+00  0.66613E+02    0.47500E+00  0.47500E+00 -0.95000E+00  0.00000E+00  0.00000E+00  0.00000E+00    0.20282E+02  0.22027E+02 -0.42310E+02  0.46371E+01  0.59777E+01 -0.88602E+01      982.00
  0.91219E+00  0.66688E+02    0.48750E+00  0.48750E+00 -0.97500E+00  0.00000E+00  0.00000E+00  0.00000E+00    0.20186E+02  0.22207E+02 -0.42393E+02  0.45614E+01  0.59547E+01 -0.87901E+01      982.00
  0.93603E+00  0.66738E+02    0.50000E+00  0.50000E+00 -0.10000E+01  0.00000E+00  0.00000E+00  0.00000E+00    0.20078E+02  0.22384E+02 -0.42461E+02  0.44723E+01  0.59376E+01 -0.87096E+01      982.00
