          Evm          Svm            E11          E22          E33          E23          E13          E12         SDEV11       SDEV22       SDEV33       SDEV23       SDEV13       SDEV12      TEMP
  0.00000E+00  0.61745E+02    0.00000E+00  0.00000E+00  0.00000E+00  0.00000E+00  0.00000E+00  0.00000E+00    0.17021E+02  0.22007E+02 -0.39029E+02  0.68234E+01 -0.38497E+01  0.77970E+01      982.00
  0.23704E-01  0.62126E+02    0.12500E-01  0.12500E-01 -0.25000E-01  0.00000E+00  0.00000E+00  0.00000E+00    0.18085E+02  0.21139E+02 -0.39224E+02  0.65968E+01 -0.43170E+01  0.82580E+01      982.00
  0.47379E-01  0.62444E+02    0.25000E-01  0.25000E-01 -0.50000E-01  0.00000E+00  0.00000E+00  0.00000E+00    0.18983E+02  0.20387E+02 -0.39370E+02  0.63537E+01 -0.46816E+01  0.86312E+01      982.00
  0.71022E-01  0.62683E+02    0.37500E-01  0.37500E-01 -0.75000E-01  0.00000E+00  0.00000E+00  0.00000E+00    0.19649E+02  0.19825E+02 -0.39473E+02  0.61089E+01 -0.48984E+01  0.89325E+01      982.00
  0.94637E-01  0.62879E+02    0.50000E-01  0.50000E-01 -0.10000E+00  0.00000E+00  0.00000E+00  0.00000E+00    0.20118E+02  0.19440E+02 -0.39558E+02  0.58724E+01 -0.49907E+01  0.92094E+01      982.00
  0.11823E+00  0.63062E+02    0.62500E-01  0.62500E-01 -0.12500E+00  0.00000E+00  0.00000E+00  0.00000E+00    0.20438E+02  0.19198E+02 -0.39635E+02  0.56487E+01 -0.49990E+01  0.94922E+01      982.00
  0.14180E+00  0.63249E+02    0.75000E-01  0.75000E-01 -0.15000E+00  0.00000E+00  0.00000E+00  0.00000E+00    0.20654E+02  0.19057E+02 -0.39711E+02  0.54376E+01 -0.49619E+01  0.97950E+01      982.00
  0.16534E+00  0.63455E+02    0.87500E-01  0.87500E-01 -0.17500E+00  0.00000E+00  0.00000E+00  0.00000E+00    0.20799E+02  0.18990E+02 -0.39790E+02  0.52403E+01 -0.49066E+01  0.10120E+02      982.00
  0.18886E+00  0.63681E+02    0.10000E+00  0.10000E+00 -0.20000E+00  0.00000E+00  0.00000E+00  0.00000E+00    0.20889E+02  0.18983E+02 -0.39872E+02  0.50601E+01 -0.48426E+01  0.10463E+02      982.00
  0.21234E+00  0.63930E+02    0.11250E+00  0.11250E+00 -0.22500E+00  0.00000E+00  0.00000E+00  0.00000E+00    0.20949E+02  0.19007E+02 -0.39956E+02  0.48882E+01 -0.47884E+01  0.10826E+02      982.00
  0.23577E+00  0.64182E+02    0.12500E+00  0.12500E+00 -0.25000E+00  0.00000E+00  0.00000E+00  0.00000E+00    0.20969E+02  0.19066E+02 -0.40035E+02  0.47418E+01 -0.47336E+01  0.11189E+02      982.00
  0.25917E+00  0.64444E+02    0.13750E+00  0.13750E+00 -0.27500E+00  0.00000E+00  0.00000E+00  0.00000E+00    0.20972E+02  0.19139E+02 -0.40111E+02  0.46116E+01 -0.46924E+01  0.11557E+02      982.00
  0.28251E+00  0.64712E+02    0.15000E+00  0.15000E+00 -0.30000E+00  0.00000E+00  0.00000E+00  0.00000E+00    0.20961E+02  0.19221E+02 -0.40182E+02  0.45023E+01 -0.46640E+01  0.11923E+02      982.00
  0.30579E+00  0.64986E+02    0.16250E+00  0.16250E+00 -0.32500E+00  0.00000E+00  0.00000E+00  0.00000E+00    0.20941E+02  0.19306E+02 -0.40247E+02  0.44028E+01 -0.46525E+01  0.12295E+02      982.00
  0.32902E+00  0.65258E+02    0.17500E+00  0.17500E+00 -0.35000E+00  0.00000E+00  0.00000E+00  0.00000E+00    0.20912E+02  0.19390E+02 -0.40302E+02  0.43200E+01 -0.46530E+01  0.12667E+02      982.00
  0.35217E+00  0.65524E+02    0.18750E+00  0.18750E+00 -0.37500E+00  0.00000E+00  0.00000E+00  0.00000E+00    0.20872E+02  0.19473E+02 -0.40345E+02  0.42486E+01 -0.46666E+01  0.13039E+02      982.00
  0.37526E+00  0.65781E+02    0.20000E+00  0.20000E+00 -0.40000E+00  0.00000E+00  0.00000E+00  0.00000E+00    0.20820E+02  0.19554E+02 -0.40374E+02  0.41899E+01 -0.46901E+01  0.13410E+02      982.00
  0.39828E+00  0.66025E+02    0.21250E+00  0.21250E+00 -0.42500E+00  0.00000E+00  0.00000E+00  0.00000E+00    0.20759E+02  0.19629E+02 -0.40388E+02  0.41422E+01 -0.47217E+01  0.13782E+02      982.00
  0.42122E+00  0.66254E+02    0.22500E+00  0.22500E+00 -0.45000E+00  0.00000E+00  0.00000E+00  0.00000E+00    0.20688E+02  0.19695E+02 -0.40383E+02  0.41037E+01 -0.47598E+01  0.14155E+02      982.00
  0.44408E+00  0.66463E+02    0.23750E+00  0.23750E+00 -0.47500E+00  0.00000E+00  0.00000E+00  0.00000E+00    0.20604E+02  0.19755E+02 -0.40359E+02  0.40711E+01 -0.48020E+01  0.14527E+02      982.00
  0.46685E+00  0.66659E+02    0.25000E+00  0.25000E+00 -0.50000E+00  0.00000E+00  0.00000E+00  0.00000E+00    0.20516E+02  0.19799E+02 -0.40315E+02  0.40456E+01 -0.48465E+01  0.14906E+02      982.00
  0.48953E+00  0.66836E+02    0.26250E+00  0.26250E+00 -0.52500E+00  0.00000E+00  0.00000E+00  0.00000E+00    0.20420E+02  0.19830E+02 -0.40250E+02  0.40231E+01 -0.48913E+01  0.15290E+02      982.00
  0.51211E+00  0.66992E+02    0.27500E+00  0.27500E+00 -0.55000E+00  0.00000E+00  0.00000E+00  0.00000E+00    0.20312E+02  0.19852E+02 -0.40164E+02  0.39974E+01 -0.49332E+01  0.15677E+02      982.00
  0.53459E+00  0.67132E+02    0.28750E+00  0.28750E+00 -0.57500E+00  0.00000E+00  0.00000E+00  0.00000E+00    0.20202E+02  0.19854E+02 -0.40056E+02  0.39739E+01 -0.49705E+01  0.16073E+02      982.00
  0.55697E+00  0.67256E+02    0.30000E+00  0.30000E+00 -0.60000E+00  0.00000E+00  0.00000E+00  0.00000E+00    0.20082E+02  0.19847E+02 -0.39928E+02  0.39390E+01 -0.49998E+01  0.16478E+02      982.00
  0.57923E+00  0.67358E+02    0.31250E+00  0.31250E+00 -0.62500E+00  0.00000E+00  0.00000E+00  0.00000E+00    0.19960E+02  0.19818E+02 -0.39779E+02  0.39030E+01 -0.50183E+01  0.16887E+02      982.00
  0.60138E+00  0.67441E+02    0.32500E+00  0.32500E+00 -0.65000E+00  0.00000E+00  0.00000E+00  0.00000E+00    0.19835E+02  0.19775E+02 -0.39609E+02  0.38550E+01 -0.50225E+01  0.17301E+02      982.00
  0.62340E+00  0.67514E+02    0.33750E+00  0.33750E+00 -0.67500E+00  0.00000E+00  0.00000E+00  0.00000E+00    0.19703E+02  0.19722E+02 -0.39425E+02  0.37816E+01 -0.50062E+01  0.17728E+02      982.00
  0.64530E+00  0.67558E+02    0.35000E+00  0.35000E+00 -0.70000E+00  0.00000E+00  0.00000E+00  0.00000E+00    0.19577E+02  0.19647E+02 -0.39224E+02  0.37184E+01 -0.49781E+01  0.18134E+02      982.00
  0.66707E+00  0.67594E+02    0.36250E+00  0.36250E+00 -0.72500E+00  0.00000E+00  0.00000E+00  0.00000E+00    0.19448E+02  0.19565E+02 -0.39014E+02  0.36237E+01 -0.49239E+01  0.18548E+02      982.00
  0.68872E+00  0.67615E+02    0.37500E+00  0.37500E+00 -0.75000E+00  0.00000E+00  0.00000E+00  0.00000E+00    0.19321E+02  0.19475E+02 -0.38797E+02  0.35090E+01 -0.48452E+01  0.18954E+02      982.00
  0.71023E+00  0.67623E+02    0.38750E+00  0.38750E+00 -0.77500E+00  0.00000E+00  0.00000E+00  0.00000E+00    0.19197E+02  0.19380E+02 -0.38576E+02  0.33730E+01 -0.47408E+01  0.19348E+02      982.00
  0.73163E+00  0.67632E+02    0.40000E+00  0.40000E+00 -0.80000E+00  0.00000E+00  0.00000E+00  0.00000E+00    0.19079E+02  0.19280E+02 -0.38359E+02  0.32308E+01 -0.46226E+01  0.19731E+02      982.00
  0.75290E+00  0.67628E+02    0.41250E+00  0.41250E+00 -0.82500E+00  0.00000E+00  0.00000E+00  0.00000E+00    0.18968E+02  0.19182E+02 -0.38149E+02  0.30589E+01 -0.44734E+01  0.20090E+02      982.00
  0.77405E+00  0.67607E+02    0.42500E+00  0.42500E+00 -0.85000E+00  0.00000E+00  0.00000E+00  0.00000E+00    0.18863E+02  0.19084E+02 -0.37947E+02  0.28632E+01 -0.42953E+01  0.20420E+02      982.00
  0.79510E+00  0.67586E+02    0.43750E+00  0.43750E+00 -0.87500E+00  0.00000E+00  0.00000E+00  0.00000E+00    0.18768E+02  0.18992E+02 -0.37760E+02  0.26563E+01 -0.41016E+01  0.20721E+02      982.00
  0.81605E+00  0.67553E+02    0.45000E+00  0.45000E+00 -0.90000E+00  0.00000E+00  0.00000E+00  0.00000E+00    0.18683E+02  0.18904E+02 -0.37587E+02  0.24292E+01 -0.38824E+01  0.20989E+02      982.00
  0.83691E+00  0.67511E+02    0.46250E+00  0.46250E+00 -0.92500E+00  0.00000E+00  0.00000E+00  0.00000E+00    0.18609E+02  0.18824E+02 -0.37433E+02  0.21820E+01 -0.36378E+01  0.21221E+02      982.00
  0.85771E+00  0.67469E+02    0.47500E+00  0.47500E+00 -0.95000E+00  0.00000E+00  0.00000E+00  0.00000E+00    0.18548E+02  0.18753E+02 -0.37301E+02  0.19282E+01 -0.33824E+01  0.21417E+02      982.00
  0.87844E+00  0.67422E+02    0.48750E+00  0.48750E+00 -0.97500E+00  0.00000E+00  0.00000E+00  0.00000E+00    0.18498E+02  0.18692E+02 -0.37189E+02  0.16605E+01 -0.31076E+01  0.21577E+02      982.00
  0.89912E+00  0.67373E+02    0.50000E+00  0.50000E+00 -0.10000E+01  0.00000E+00  0.00000E+00  0.00000E+00    0.18460E+02  0.18640E+02 -0.37100E+02  0.13845E+01 -0.28198E+01  0.21699E+02      982.00
