          Evm          Svm            E11          E22          E33          E23          E13          E12         SDEV11       SDEV22       SDEV33       SDEV23       SDEV13       SDEV12      TEMP
  0.00000E+00  0.62359E+02    0.00000E+00  0.00000E+00  0.00000E+00  0.00000E+00  0.00000E+00  0.00000E+00    0.21599E+02  0.19736E+02 -0.41335E+02  0.27309E+00  0.22340E+01  0.29704E+01      982.00
  0.24857E-01  0.62621E+02    0.12500E-01  0.12500E-01 -0.25000E-01  0.00000E+00  0.00000E+00  0.00000E+00    0.20865E+02  0.20616E+02 -0.41481E+02  0.73995E+00  0.23048E+01  0.32775E+01      982.00
  0.49698E-01  0.62927E+02    0.25000E-01  0.25000E-01 -0.50000E-01  0.00000E+00  0.00000E+00  0.00000E+00    0.20005E+02  0.21632E+02 -0.41637E+02  0.11749E+01  0.23130E+01  0.35043E+01      982.00
  0.74511E-01  0.63168E+02    0.37500E-01  0.37500E-01 -0.75000E-01  0.00000E+00  0.00000E+00  0.00000E+00    0.19207E+02  0.22542E+02 -0.41749E+02  0.14399E+01  0.22398E+01  0.36037E+01      982.00
  0.99295E-01  0.63328E+02    0.50000E-01  0.50000E-01 -0.10000E+00  0.00000E+00  0.00000E+00  0.00000E+00    0.18577E+02  0.23241E+02 -0.41818E+02  0.15192E+01  0.21303E+01  0.35978E+01      982.00
  0.12406E+00  0.63446E+02    0.62500E-01  0.62500E-01 -0.12500E+00  0.00000E+00  0.00000E+00  0.00000E+00    0.18103E+02  0.23769E+02 -0.41871E+02  0.14900E+01  0.20287E+01  0.35368E+01      982.00
  0.14881E+00  0.63554E+02    0.75000E-01  0.75000E-01 -0.15000E+00  0.00000E+00  0.00000E+00  0.00000E+00    0.17773E+02  0.24155E+02 -0.41929E+02  0.14006E+01  0.19529E+01  0.34486E+01      982.00
  0.17355E+00  0.63673E+02    0.87500E-01  0.87500E-01 -0.17500E+00  0.00000E+00  0.00000E+00  0.00000E+00    0.17538E+02  0.24461E+02 -0.41998E+02  0.12999E+01  0.19071E+01  0.33488E+01      982.00
  0.19828E+00  0.63805E+02    0.10000E+00  0.10000E+00 -0.20000E+00  0.00000E+00  0.00000E+00  0.00000E+00    0.17387E+02  0.24692E+02 -0.42079E+02  0.12031E+01  0.18880E+01  0.32678E+01      982.00
  0.22301E+00  0.63956E+02    0.11250E+00  0.11250E+00 -0.22500E+00  0.00000E+00  0.00000E+00  0.00000E+00    0.17283E+02  0.24892E+02 -0.42175E+02  0.11218E+01  0.18940E+01  0.31806E+01      982.00
  0.24774E+00  0.64137E+02    0.12500E+00  0.12500E+00 -0.25000E+00  0.00000E+00  0.00000E+00  0.00000E+00    0.17233E+02  0.25059E+02 -0.42291E+02  0.10579E+01  0.19183E+01  0.31072E+01      982.00
  0.27247E+00  0.64329E+02    0.13750E+00  0.13750E+00 -0.27500E+00  0.00000E+00  0.00000E+00  0.00000E+00    0.17213E+02  0.25204E+02 -0.42417E+02  0.10138E+01  0.19585E+01  0.30318E+01      982.00
  0.29719E+00  0.64524E+02    0.15000E+00  0.15000E+00 -0.30000E+00  0.00000E+00  0.00000E+00  0.00000E+00    0.17218E+02  0.25329E+02 -0.42547E+02  0.97969E+00  0.20146E+01  0.29363E+01      982.00
  0.32192E+00  0.64721E+02    0.16250E+00  0.16250E+00 -0.32500E+00  0.00000E+00  0.00000E+00  0.00000E+00    0.17246E+02  0.25434E+02 -0.42680E+02  0.96645E+00  0.20769E+01  0.28432E+01      982.00
  0.34665E+00  0.64907E+02    0.17500E+00  0.17500E+00 -0.35000E+00  0.00000E+00  0.00000E+00  0.00000E+00    0.17288E+02  0.25520E+02 -0.42807E+02  0.96682E+00  0.21465E+01  0.27365E+01      982.00
  0.37138E+00  0.65078E+02    0.18750E+00  0.18750E+00 -0.37500E+00  0.00000E+00  0.00000E+00  0.00000E+00    0.17340E+02  0.25586E+02 -0.42926E+02  0.97875E+00  0.22215E+01  0.26126E+01      982.00
  0.39612E+00  0.65227E+02    0.20000E+00  0.20000E+00 -0.40000E+00  0.00000E+00  0.00000E+00  0.00000E+00    0.17398E+02  0.25634E+02 -0.43032E+02  0.10037E+01  0.23014E+01  0.24703E+01      982.00
  0.42086E+00  0.65350E+02    0.21250E+00  0.21250E+00 -0.42500E+00  0.00000E+00  0.00000E+00  0.00000E+00    0.17464E+02  0.25659E+02 -0.43123E+02  0.10343E+01  0.23833E+01  0.23041E+01      982.00
  0.44560E+00  0.65446E+02    0.22500E+00  0.22500E+00 -0.45000E+00  0.00000E+00  0.00000E+00  0.00000E+00    0.17534E+02  0.25663E+02 -0.43197E+02  0.10712E+01  0.24667E+01  0.21124E+01      982.00
  0.47036E+00  0.65516E+02    0.23750E+00  0.23750E+00 -0.47500E+00  0.00000E+00  0.00000E+00  0.00000E+00    0.17604E+02  0.25650E+02 -0.43254E+02  0.11274E+01  0.25480E+01  0.19069E+01      982.00
  0.49511E+00  0.65551E+02    0.25000E+00  0.25000E+00 -0.50000E+00  0.00000E+00  0.00000E+00  0.00000E+00    0.17680E+02  0.25611E+02 -0.43290E+02  0.11735E+01  0.26315E+01  0.16569E+01      982.00
  0.51988E+00  0.65550E+02    0.26250E+00  0.26250E+00 -0.52500E+00  0.00000E+00  0.00000E+00  0.00000E+00    0.17761E+02  0.25543E+02 -0.43304E+02  0.12172E+01  0.27134E+01  0.13564E+01      982.00
  0.54465E+00  0.65524E+02    0.27500E+00  0.27500E+00 -0.55000E+00  0.00000E+00  0.00000E+00  0.00000E+00    0.17840E+02  0.25460E+02 -0.43299E+02  0.12730E+01  0.27876E+01  0.10448E+01      982.00
  0.56943E+00  0.65467E+02    0.28750E+00  0.28750E+00 -0.57500E+00  0.00000E+00  0.00000E+00  0.00000E+00    0.17928E+02  0.25347E+02 -0.43275E+02  0.13113E+01  0.28579E+01  0.68306E+00      982.00
  0.59422E+00  0.65382E+02    0.30000E+00  0.30000E+00 -0.60000E+00  0.00000E+00  0.00000E+00  0.00000E+00    0.18022E+02  0.25208E+02 -0.43230E+02  0.13391E+01  0.29193E+01  0.27835E+00      982.00
  0.61902E+00  0.65274E+02    0.31250E+00  0.31250E+00 -0.62500E+00  0.00000E+00  0.00000E+00  0.00000E+00    0.18118E+02  0.25048E+02 -0.43167E+02  0.13639E+01  0.29699E+01 -0.16970E+00      982.00
  0.64382E+00  0.65146E+02    0.32500E+00  0.32500E+00 -0.65000E+00  0.00000E+00  0.00000E+00  0.00000E+00    0.18230E+02  0.24857E+02 -0.43087E+02  0.13571E+01  0.30041E+01 -0.66706E+00      982.00
  0.66862E+00  0.65005E+02    0.33750E+00  0.33750E+00 -0.67500E+00  0.00000E+00  0.00000E+00  0.00000E+00    0.18343E+02  0.24649E+02 -0.42992E+02  0.13355E+01  0.30200E+01 -0.12118E+01      982.00
  0.69342E+00  0.64861E+02    0.35000E+00  0.35000E+00 -0.70000E+00  0.00000E+00  0.00000E+00  0.00000E+00    0.18471E+02  0.24417E+02 -0.42888E+02  0.12797E+01  0.30127E+01 -0.18010E+01      982.00
  0.71821E+00  0.64722E+02    0.36250E+00  0.36250E+00 -0.72500E+00  0.00000E+00  0.00000E+00  0.00000E+00    0.18616E+02  0.24161E+02 -0.42777E+02  0.11867E+01  0.29796E+01 -0.24322E+01      982.00
  0.74300E+00  0.64599E+02    0.37500E+00  0.37500E+00 -0.75000E+00  0.00000E+00  0.00000E+00  0.00000E+00    0.18779E+02  0.23886E+02 -0.42665E+02  0.10543E+01  0.29179E+01 -0.31031E+01      982.00
  0.76777E+00  0.64504E+02    0.38750E+00  0.38750E+00 -0.77500E+00  0.00000E+00  0.00000E+00  0.00000E+00    0.18962E+02  0.23595E+02 -0.42557E+02  0.88064E+00  0.28253E+01 -0.38084E+01      982.00
  0.79251E+00  0.64451E+02    0.40000E+00  0.40000E+00 -0.80000E+00  0.00000E+00  0.00000E+00  0.00000E+00    0.19165E+02  0.23294E+02 -0.42459E+02  0.66392E+00  0.26996E+01 -0.45395E+01      982.00
  0.81721E+00  0.64452E+02    0.41250E+00  0.41250E+00 -0.82500E+00  0.00000E+00  0.00000E+00  0.00000E+00    0.19384E+02  0.22994E+02 -0.42378E+02  0.41004E+00  0.25431E+01 -0.52811E+01      982.00
  0.84187E+00  0.64515E+02    0.42500E+00  0.42500E+00 -0.85000E+00  0.00000E+00  0.00000E+00  0.00000E+00    0.19621E+02  0.22698E+02 -0.42319E+02  0.12285E+00  0.23580E+01 -0.60219E+01      982.00
  0.86647E+00  0.64643E+02    0.43750E+00  0.43750E+00 -0.87500E+00  0.00000E+00  0.00000E+00  0.00000E+00    0.19870E+02  0.22416E+02 -0.42287E+02 -0.18608E+00  0.21498E+01 -0.67473E+01      982.00
  0.89100E+00  0.64784E+02    0.45000E+00  0.45000E+00 -0.90000E+00  0.00000E+00  0.00000E+00  0.00000E+00    0.20112E+02  0.22139E+02 -0.42251E+02 -0.49756E+00  0.19340E+01 -0.74229E+01      982.00
  0.91545E+00  0.64983E+02    0.46250E+00  0.46250E+00 -0.92500E+00  0.00000E+00  0.00000E+00  0.00000E+00    0.20355E+02  0.21891E+02 -0.42246E+02 -0.80202E+00  0.17130E+01 -0.80553E+01      982.00
  0.93983E+00  0.65232E+02    0.47500E+00  0.47500E+00 -0.95000E+00  0.00000E+00  0.00000E+00  0.00000E+00    0.20601E+02  0.21669E+02 -0.42269E+02 -0.10986E+01  0.14883E+01 -0.86413E+01      982.00
  0.96413E+00  0.65520E+02    0.48750E+00  0.48750E+00 -0.97500E+00  0.00000E+00  0.00000E+00  0.00000E+00    0.20846E+02  0.21473E+02 -0.42319E+02 -0.13775E+01  0.12654E+01 -0.91761E+01      982.00
  0.98835E+00  0.65836E+02    0.50000E+00  0.50000E+00 -0.10000E+01  0.00000E+00  0.00000E+00  0.00000E+00    0.21087E+02  0.21304E+02 -0.42391E+02 -0.16325E+01  0.10485E+01 -0.96576E+01      982.00
