          Evm          Svm            E11          E22          E33          E23          E13          E12         SDEV11       SDEV22       SDEV33       SDEV23       SDEV13       SDEV12      TEMP
  0.00000E+00  0.48789E+02    0.00000E+00  0.00000E+00  0.00000E+00  0.00000E+00  0.00000E+00  0.00000E+00    0.14814E+02  0.16241E+02 -0.31055E+02  0.78695E+01 -0.15670E+01 -0.22921E+01      982.00
  0.23869E-01  0.49008E+02    0.12500E-01  0.12500E-01 -0.25000E-01  0.00000E+00  0.00000E+00  0.00000E+00    0.15983E+02  0.15194E+02 -0.31178E+02  0.77225E+01  0.26967E+00 -0.34213E+01      982.00
  0.47726E-01  0.49418E+02    0.25000E-01  0.25000E-01 -0.50000E-01  0.00000E+00  0.00000E+00  0.00000E+00    0.17111E+02  0.14193E+02 -0.31304E+02  0.73465E+01  0.19352E+01 -0.43877E+01      982.00
  0.71480E-01  0.49939E+02    0.37500E-01  0.37500E-01 -0.75000E-01  0.00000E+00  0.00000E+00  0.00000E+00    0.17942E+02  0.13507E+02 -0.31449E+02  0.70132E+01  0.30647E+01 -0.51009E+01      982.00
  0.95096E-01  0.50474E+02    0.50000E-01  0.50000E-01 -0.10000E+00  0.00000E+00  0.00000E+00  0.00000E+00    0.18530E+02  0.13092E+02 -0.31622E+02  0.67817E+01  0.37633E+01 -0.56298E+01      982.00
  0.11859E+00  0.50996E+02    0.62500E-01  0.62500E-01 -0.12500E+00  0.00000E+00  0.00000E+00  0.00000E+00    0.18972E+02  0.12848E+02 -0.31820E+02  0.66211E+01  0.42077E+01 -0.60497E+01      982.00
  0.14199E+00  0.51505E+02    0.75000E-01  0.75000E-01 -0.15000E+00  0.00000E+00  0.00000E+00  0.00000E+00    0.19326E+02  0.12710E+02 -0.32036E+02  0.65021E+01  0.45048E+01 -0.64034E+01      982.00
  0.16531E+00  0.52003E+02    0.87500E-01  0.87500E-01 -0.17500E+00  0.00000E+00  0.00000E+00  0.00000E+00    0.19623E+02  0.12646E+02 -0.32268E+02  0.64087E+01  0.47100E+01 -0.67135E+01      982.00
  0.18858E+00  0.52497E+02    0.10000E+00  0.10000E+00 -0.20000E+00  0.00000E+00  0.00000E+00  0.00000E+00    0.19886E+02  0.12629E+02 -0.32515E+02  0.63274E+01  0.48596E+01 -0.69940E+01      982.00
  0.21181E+00  0.52990E+02    0.11250E+00  0.11250E+00 -0.22500E+00  0.00000E+00  0.00000E+00  0.00000E+00    0.20127E+02  0.12646E+02 -0.32773E+02  0.62531E+01  0.49721E+01 -0.72529E+01      982.00
  0.23500E+00  0.53486E+02    0.12500E+00  0.12500E+00 -0.25000E+00  0.00000E+00  0.00000E+00  0.00000E+00    0.20349E+02  0.12694E+02 -0.33044E+02  0.61853E+01  0.50566E+01 -0.74957E+01      982.00
  0.25817E+00  0.53989E+02    0.13750E+00  0.13750E+00 -0.27500E+00  0.00000E+00  0.00000E+00  0.00000E+00    0.20563E+02  0.12763E+02 -0.33326E+02  0.61181E+01  0.51250E+01 -0.77276E+01      982.00
  0.28132E+00  0.54496E+02    0.15000E+00  0.15000E+00 -0.30000E+00  0.00000E+00  0.00000E+00  0.00000E+00    0.20762E+02  0.12856E+02 -0.33618E+02  0.60559E+01  0.51777E+01 -0.79477E+01      982.00
  0.30445E+00  0.55007E+02    0.16250E+00  0.16250E+00 -0.32500E+00  0.00000E+00  0.00000E+00  0.00000E+00    0.20947E+02  0.12973E+02 -0.33920E+02  0.60004E+01  0.52192E+01 -0.81586E+01      982.00
  0.32757E+00  0.55523E+02    0.17500E+00  0.17500E+00 -0.35000E+00  0.00000E+00  0.00000E+00  0.00000E+00    0.21122E+02  0.13106E+02 -0.34228E+02  0.59447E+01  0.52570E+01 -0.83611E+01      982.00
  0.35069E+00  0.56041E+02    0.18750E+00  0.18750E+00 -0.37500E+00  0.00000E+00  0.00000E+00  0.00000E+00    0.21285E+02  0.13257E+02 -0.34541E+02  0.58918E+01  0.52920E+01 -0.85549E+01      982.00
  0.37381E+00  0.56560E+02    0.20000E+00  0.20000E+00 -0.40000E+00  0.00000E+00  0.00000E+00  0.00000E+00    0.21433E+02  0.13426E+02 -0.34859E+02  0.58426E+01  0.53272E+01 -0.87416E+01      982.00
  0.39692E+00  0.57082E+02    0.21250E+00  0.21250E+00 -0.42500E+00  0.00000E+00  0.00000E+00  0.00000E+00    0.21562E+02  0.13623E+02 -0.35185E+02  0.57988E+01  0.53557E+01 -0.89200E+01      982.00
  0.42003E+00  0.57604E+02    0.22500E+00  0.22500E+00 -0.45000E+00  0.00000E+00  0.00000E+00  0.00000E+00    0.21677E+02  0.13836E+02 -0.35512E+02  0.57558E+01  0.53921E+01 -0.90917E+01      982.00
  0.44315E+00  0.58131E+02    0.23750E+00  0.23750E+00 -0.47500E+00  0.00000E+00  0.00000E+00  0.00000E+00    0.21773E+02  0.14073E+02 -0.35847E+02  0.57147E+01  0.54313E+01 -0.92575E+01      982.00
  0.46628E+00  0.58638E+02    0.25000E+00  0.25000E+00 -0.50000E+00  0.00000E+00  0.00000E+00  0.00000E+00    0.21848E+02  0.14329E+02 -0.36177E+02  0.56739E+01  0.54613E+01 -0.94041E+01      982.00
  0.48941E+00  0.59136E+02    0.26250E+00  0.26250E+00 -0.52500E+00  0.00000E+00  0.00000E+00  0.00000E+00    0.21905E+02  0.14599E+02 -0.36505E+02  0.56328E+01  0.54923E+01 -0.95391E+01      982.00
  0.51256E+00  0.59622E+02    0.27500E+00  0.27500E+00 -0.55000E+00  0.00000E+00  0.00000E+00  0.00000E+00    0.21947E+02  0.14883E+02 -0.36830E+02  0.55903E+01  0.55250E+01 -0.96620E+01      982.00
  0.53572E+00  0.60095E+02    0.28750E+00  0.28750E+00 -0.57500E+00  0.00000E+00  0.00000E+00  0.00000E+00    0.21973E+02  0.15177E+02 -0.37150E+02  0.55459E+01  0.55591E+01 -0.97726E+01      982.00
  0.55891E+00  0.60554E+02    0.30000E+00  0.30000E+00 -0.60000E+00  0.00000E+00  0.00000E+00  0.00000E+00    0.21984E+02  0.15481E+02 -0.37465E+02  0.54993E+01  0.55944E+01 -0.98705E+01      982.00
  0.58211E+00  0.60998E+02    0.31250E+00  0.31250E+00 -0.62500E+00  0.00000E+00  0.00000E+00  0.00000E+00    0.21982E+02  0.15792E+02 -0.37774E+02  0.54501E+01  0.56307E+01 -0.99556E+01      982.00
  0.60533E+00  0.61425E+02    0.32500E+00  0.32500E+00 -0.65000E+00  0.00000E+00  0.00000E+00  0.00000E+00    0.21966E+02  0.16109E+02 -0.38075E+02  0.53982E+01  0.56675E+01 -0.10028E+02      982.00
  0.62857E+00  0.61832E+02    0.33750E+00  0.33750E+00 -0.67500E+00  0.00000E+00  0.00000E+00  0.00000E+00    0.21938E+02  0.16430E+02 -0.38368E+02  0.53421E+01  0.57013E+01 -0.10086E+02      982.00
  0.65184E+00  0.62225E+02    0.35000E+00  0.35000E+00 -0.70000E+00  0.00000E+00  0.00000E+00  0.00000E+00    0.21899E+02  0.16753E+02 -0.38652E+02  0.52848E+01  0.57384E+01 -0.10134E+02      982.00
  0.67514E+00  0.62600E+02    0.36250E+00  0.36250E+00 -0.72500E+00  0.00000E+00  0.00000E+00  0.00000E+00    0.21850E+02  0.17077E+02 -0.38927E+02  0.52250E+01  0.57752E+01 -0.10170E+02      982.00
  0.69846E+00  0.62958E+02    0.37500E+00  0.37500E+00 -0.75000E+00  0.00000E+00  0.00000E+00  0.00000E+00    0.21792E+02  0.17401E+02 -0.39193E+02  0.51626E+01  0.58115E+01 -0.10194E+02      982.00
  0.72180E+00  0.63284E+02    0.38750E+00  0.38750E+00 -0.77500E+00  0.00000E+00  0.00000E+00  0.00000E+00    0.21732E+02  0.17704E+02 -0.39436E+02  0.51028E+01  0.58452E+01 -0.10211E+02      982.00
  0.74517E+00  0.63608E+02    0.40000E+00  0.40000E+00 -0.80000E+00  0.00000E+00  0.00000E+00  0.00000E+00    0.21660E+02  0.18024E+02 -0.39683E+02  0.50362E+01  0.58793E+01 -0.10215E+02      982.00
  0.76857E+00  0.63915E+02    0.41250E+00  0.41250E+00 -0.82500E+00  0.00000E+00  0.00000E+00  0.00000E+00    0.21580E+02  0.18340E+02 -0.39920E+02  0.49680E+01  0.59127E+01 -0.10208E+02      982.00
  0.79199E+00  0.64222E+02    0.42500E+00  0.42500E+00 -0.85000E+00  0.00000E+00  0.00000E+00  0.00000E+00    0.21507E+02  0.18653E+02 -0.40159E+02  0.49031E+01  0.59297E+01 -0.10199E+02      982.00
  0.81544E+00  0.64494E+02    0.43750E+00  0.43750E+00 -0.87500E+00  0.00000E+00  0.00000E+00  0.00000E+00    0.21413E+02  0.18962E+02 -0.40375E+02  0.48339E+01  0.59601E+01 -0.10173E+02      982.00
  0.83891E+00  0.64751E+02    0.45000E+00  0.45000E+00 -0.90000E+00  0.00000E+00  0.00000E+00  0.00000E+00    0.21316E+02  0.19266E+02 -0.40581E+02  0.47631E+01  0.59898E+01 -0.10139E+02      982.00
  0.86242E+00  0.64994E+02    0.46250E+00  0.46250E+00 -0.92500E+00  0.00000E+00  0.00000E+00  0.00000E+00    0.21208E+02  0.19572E+02 -0.40781E+02  0.46938E+01  0.60153E+01 -0.10093E+02      982.00
  0.88594E+00  0.65220E+02    0.47500E+00  0.47500E+00 -0.95000E+00  0.00000E+00  0.00000E+00  0.00000E+00    0.21102E+02  0.19865E+02 -0.40967E+02  0.46222E+01  0.60422E+01 -0.10044E+02      982.00
  0.90950E+00  0.65433E+02    0.48750E+00  0.48750E+00 -0.97500E+00  0.00000E+00  0.00000E+00  0.00000E+00    0.20994E+02  0.20151E+02 -0.41145E+02  0.45499E+01  0.60682E+01 -0.99886E+01      982.00
  0.93308E+00  0.65632E+02    0.50000E+00  0.50000E+00 -0.10000E+01  0.00000E+00  0.00000E+00  0.00000E+00    0.20883E+02  0.20430E+02 -0.41313E+02  0.44775E+01  0.60931E+01 -0.99269E+01      982.00
