          Evm          Svm            E11          E22          E33          E23          E13          E12         SDEV11       SDEV22       SDEV33       SDEV23       SDEV13       SDEV12      TEMP
  0.00000E+00  0.61283E+02    0.00000E+00  0.00000E+00  0.00000E+00  0.00000E+00  0.00000E+00  0.00000E+00    0.16898E+02  0.22027E+02 -0.38926E+02 -0.57512E+01  0.34061E+01  0.80129E+01      982.00
  0.23819E-01  0.61576E+02    0.12500E-01  0.12500E-01 -0.25000E-01  0.00000E+00  0.00000E+00  0.00000E+00    0.17828E+02  0.21209E+02 -0.39036E+02 -0.56124E+01  0.38347E+01  0.84813E+01      982.00
  0.47592E-01  0.61816E+02    0.25000E-01  0.25000E-01 -0.50000E-01  0.00000E+00  0.00000E+00  0.00000E+00    0.18624E+02  0.20482E+02 -0.39106E+02 -0.54586E+01  0.41744E+01  0.88710E+01      982.00
  0.71316E-01  0.61996E+02    0.37500E-01  0.37500E-01 -0.75000E-01  0.00000E+00  0.00000E+00  0.00000E+00    0.19239E+02  0.19907E+02 -0.39146E+02 -0.52883E+01  0.43816E+01  0.91974E+01      982.00
  0.94994E-01  0.62143E+02    0.50000E-01  0.50000E-01 -0.10000E+00  0.00000E+00  0.00000E+00  0.00000E+00    0.19692E+02  0.19482E+02 -0.39174E+02 -0.51050E+01  0.44649E+01  0.95004E+01      982.00
  0.11863E+00  0.62276E+02    0.62500E-01  0.62500E-01 -0.12500E+00  0.00000E+00  0.00000E+00  0.00000E+00    0.20013E+02  0.19188E+02 -0.39200E+02 -0.49170E+01  0.44490E+01  0.98053E+01      982.00
  0.14224E+00  0.62411E+02    0.75000E-01  0.75000E-01 -0.15000E+00  0.00000E+00  0.00000E+00  0.00000E+00    0.20247E+02  0.18978E+02 -0.39225E+02 -0.47225E+01  0.43739E+01  0.10127E+02      982.00
  0.16581E+00  0.62553E+02    0.87500E-01  0.87500E-01 -0.17500E+00  0.00000E+00  0.00000E+00  0.00000E+00    0.20415E+02  0.18837E+02 -0.39252E+02 -0.45277E+01  0.42560E+01  0.10466E+02      982.00
  0.18934E+00  0.62708E+02    0.10000E+00  0.10000E+00 -0.20000E+00  0.00000E+00  0.00000E+00  0.00000E+00    0.20548E+02  0.18732E+02 -0.39280E+02 -0.43278E+01  0.41177E+01  0.10820E+02      982.00
  0.21283E+00  0.62875E+02    0.11250E+00  0.11250E+00 -0.22500E+00  0.00000E+00  0.00000E+00  0.00000E+00    0.20649E+02  0.18661E+02 -0.39310E+02 -0.41279E+01  0.39605E+01  0.11184E+02      982.00
  0.23627E+00  0.63050E+02    0.12500E+00  0.12500E+00 -0.25000E+00  0.00000E+00  0.00000E+00  0.00000E+00    0.20729E+02  0.18610E+02 -0.39338E+02 -0.39328E+01  0.37926E+01  0.11554E+02      982.00
  0.25967E+00  0.63234E+02    0.13750E+00  0.13750E+00 -0.27500E+00  0.00000E+00  0.00000E+00  0.00000E+00    0.20806E+02  0.18561E+02 -0.39368E+02 -0.37287E+01  0.36180E+01  0.11926E+02      982.00
  0.28302E+00  0.63420E+02    0.15000E+00  0.15000E+00 -0.30000E+00  0.00000E+00  0.00000E+00  0.00000E+00    0.20875E+02  0.18519E+02 -0.39394E+02 -0.35299E+01  0.34392E+01  0.12292E+02      982.00
  0.30631E+00  0.63609E+02    0.16250E+00  0.16250E+00 -0.32500E+00  0.00000E+00  0.00000E+00  0.00000E+00    0.20944E+02  0.18476E+02 -0.39420E+02 -0.33280E+01  0.32548E+01  0.12651E+02      982.00
  0.32955E+00  0.63798E+02    0.17500E+00  0.17500E+00 -0.35000E+00  0.00000E+00  0.00000E+00  0.00000E+00    0.21014E+02  0.18431E+02 -0.39445E+02 -0.31219E+01  0.30642E+01  0.12999E+02      982.00
  0.35274E+00  0.63983E+02    0.18750E+00  0.18750E+00 -0.37500E+00  0.00000E+00  0.00000E+00  0.00000E+00    0.21084E+02  0.18385E+02 -0.39469E+02 -0.29109E+01  0.28667E+01  0.13332E+02      982.00
  0.37587E+00  0.64165E+02    0.20000E+00  0.20000E+00 -0.40000E+00  0.00000E+00  0.00000E+00  0.00000E+00    0.21154E+02  0.18339E+02 -0.39493E+02 -0.26961E+01  0.26629E+01  0.13648E+02      982.00
  0.39895E+00  0.64343E+02    0.21250E+00  0.21250E+00 -0.42500E+00  0.00000E+00  0.00000E+00  0.00000E+00    0.21222E+02  0.18295E+02 -0.39517E+02 -0.24800E+01  0.24552E+01  0.13945E+02      982.00
  0.42198E+00  0.64516E+02    0.22500E+00  0.22500E+00 -0.45000E+00  0.00000E+00  0.00000E+00  0.00000E+00    0.21286E+02  0.18256E+02 -0.39542E+02 -0.22672E+01  0.22477E+01  0.14221E+02      982.00
  0.44497E+00  0.64685E+02    0.23750E+00  0.23750E+00 -0.47500E+00  0.00000E+00  0.00000E+00  0.00000E+00    0.21345E+02  0.18224E+02 -0.39569E+02 -0.20638E+01  0.20460E+01  0.14476E+02      982.00
  0.46790E+00  0.64850E+02    0.25000E+00  0.25000E+00 -0.50000E+00  0.00000E+00  0.00000E+00  0.00000E+00    0.21396E+02  0.18200E+02 -0.39597E+02 -0.18761E+01  0.18566E+01  0.14710E+02      982.00
  0.49080E+00  0.65007E+02    0.26250E+00  0.26250E+00 -0.52500E+00  0.00000E+00  0.00000E+00  0.00000E+00    0.21442E+02  0.18184E+02 -0.39626E+02 -0.16991E+01  0.16753E+01  0.14920E+02      982.00
  0.51366E+00  0.65165E+02    0.27500E+00  0.27500E+00 -0.55000E+00  0.00000E+00  0.00000E+00  0.00000E+00    0.21477E+02  0.18178E+02 -0.39655E+02 -0.15589E+01  0.15260E+01  0.15120E+02      982.00
  0.53648E+00  0.65319E+02    0.28750E+00  0.28750E+00 -0.57500E+00  0.00000E+00  0.00000E+00  0.00000E+00    0.21506E+02  0.18178E+02 -0.39684E+02 -0.14447E+01  0.14000E+01  0.15305E+02      982.00
  0.55926E+00  0.65462E+02    0.30000E+00  0.30000E+00 -0.60000E+00  0.00000E+00  0.00000E+00  0.00000E+00    0.21527E+02  0.18185E+02 -0.39712E+02 -0.13510E+01  0.12916E+01  0.15470E+02      982.00
  0.58201E+00  0.65608E+02    0.31250E+00  0.31250E+00 -0.62500E+00  0.00000E+00  0.00000E+00  0.00000E+00    0.21546E+02  0.18194E+02 -0.39739E+02 -0.12857E+01  0.12102E+01  0.15635E+02      982.00
  0.60473E+00  0.65747E+02    0.32500E+00  0.32500E+00 -0.65000E+00  0.00000E+00  0.00000E+00  0.00000E+00    0.21561E+02  0.18203E+02 -0.39764E+02 -0.12398E+01  0.11477E+01  0.15790E+02      982.00
  0.62741E+00  0.65883E+02    0.33750E+00  0.33750E+00 -0.67500E+00  0.00000E+00  0.00000E+00  0.00000E+00    0.21571E+02  0.18217E+02 -0.39788E+02 -0.12046E+01  0.10916E+01  0.15941E+02      982.00
  0.65005E+00  0.65998E+02    0.35000E+00  0.35000E+00 -0.70000E+00  0.00000E+00  0.00000E+00  0.00000E+00    0.21584E+02  0.18220E+02 -0.39804E+02 -0.11995E+01  0.10723E+01  0.16069E+02      982.00
  0.67267E+00  0.66132E+02    0.36250E+00  0.36250E+00 -0.72500E+00  0.00000E+00  0.00000E+00  0.00000E+00    0.21588E+02  0.18239E+02 -0.39827E+02 -0.11885E+01  0.10360E+01  0.16214E+02      982.00
  0.69525E+00  0.66248E+02    0.37500E+00  0.37500E+00 -0.75000E+00  0.00000E+00  0.00000E+00  0.00000E+00    0.21597E+02  0.18246E+02 -0.39842E+02 -0.11984E+01  0.10258E+01  0.16342E+02      982.00
  0.71781E+00  0.66357E+02    0.38750E+00  0.38750E+00 -0.77500E+00  0.00000E+00  0.00000E+00  0.00000E+00    0.21606E+02  0.18250E+02 -0.39856E+02 -0.12133E+01  0.10221E+01  0.16463E+02      982.00
  0.74033E+00  0.66459E+02    0.40000E+00  0.40000E+00 -0.80000E+00  0.00000E+00  0.00000E+00  0.00000E+00    0.21616E+02  0.18250E+02 -0.39866E+02 -0.12349E+01  0.10260E+01  0.16580E+02      982.00
  0.76283E+00  0.66556E+02    0.41250E+00  0.41250E+00 -0.82500E+00  0.00000E+00  0.00000E+00  0.00000E+00    0.21627E+02  0.18247E+02 -0.39874E+02 -0.12604E+01  0.10343E+01  0.16691E+02      982.00
  0.78529E+00  0.66646E+02    0.42500E+00  0.42500E+00 -0.85000E+00  0.00000E+00  0.00000E+00  0.00000E+00    0.21637E+02  0.18243E+02 -0.39880E+02 -0.12887E+01  0.10460E+01  0.16796E+02      982.00
  0.80773E+00  0.66730E+02    0.43750E+00  0.43750E+00 -0.87500E+00  0.00000E+00  0.00000E+00  0.00000E+00    0.21648E+02  0.18236E+02 -0.39884E+02 -0.13191E+01  0.10601E+01  0.16896E+02      982.00
  0.83015E+00  0.66808E+02    0.45000E+00  0.45000E+00 -0.90000E+00  0.00000E+00  0.00000E+00  0.00000E+00    0.21658E+02  0.18228E+02 -0.39886E+02 -0.13507E+01  0.10759E+01  0.16990E+02      982.00
  0.85253E+00  0.66882E+02    0.46250E+00  0.46250E+00 -0.92500E+00  0.00000E+00  0.00000E+00  0.00000E+00    0.21669E+02  0.18218E+02 -0.39888E+02 -0.13830E+01  0.10928E+01  0.17079E+02      982.00
  0.87490E+00  0.66950E+02    0.47500E+00  0.47500E+00 -0.95000E+00  0.00000E+00  0.00000E+00  0.00000E+00    0.21680E+02  0.18207E+02 -0.39888E+02 -0.14154E+01  0.11104E+01  0.17164E+02      982.00
  0.89724E+00  0.67014E+02    0.48750E+00  0.48750E+00 -0.97500E+00  0.00000E+00  0.00000E+00  0.00000E+00    0.21692E+02  0.18195E+02 -0.39887E+02 -0.14477E+01  0.11283E+01  0.17243E+02      982.00
  0.91956E+00  0.67074E+02    0.50000E+00  0.50000E+00 -0.10000E+01  0.00000E+00  0.00000E+00  0.00000E+00    0.21704E+02  0.18182E+02 -0.39885E+02 -0.14796E+01  0.11462E+01  0.17318E+02      982.00
