          Evm          Svm            E11          E22          E33          E23          E13          E12         SDEV11       SDEV22       SDEV33       SDEV23       SDEV13       SDEV12      TEMP
  0.00000E+00  0.56846E+02    0.00000E+00  0.00000E+00  0.00000E+00  0.00000E+00  0.00000E+00  0.00000E+00    0.18659E+02  0.15432E+02 -0.34091E+02 -0.17605E+01  0.48320E+01  0.13284E+02      982.00
  0.22489E-01  0.56832E+02    0.12500E-01  0.12500E-01 -0.25000E-01  0.00000E+00  0.00000E+00  0.00000E+00    0.18292E+02  0.15793E+02 -0.34085E+02 -0.19612E+01  0.44086E+01  0.13433E+02      982.00
  0.44980E-01  0.56935E+02    0.25000E-01  0.25000E-01 -0.50000E-01  0.00000E+00  0.00000E+00  0.00000E+00    0.18051E+02  0.16070E+02 -0.34120E+02 -0.21002E+01  0.40755E+01  0.13615E+02      982.00
  0.67453E-01  0.57140E+02    0.37500E-01  0.37500E-01 -0.75000E-01  0.00000E+00  0.00000E+00  0.00000E+00    0.17897E+02  0.16298E+02 -0.34196E+02 -0.22031E+01  0.37925E+01  0.13836E+02      982.00
  0.89895E-01  0.57431E+02    0.50000E-01  0.50000E-01 -0.10000E+00  0.00000E+00  0.00000E+00  0.00000E+00    0.17814E+02  0.16492E+02 -0.34306E+02 -0.22775E+01  0.35493E+01  0.14090E+02      982.00
  0.11230E+00  0.57787E+02    0.62500E-01  0.62500E-01 -0.12500E+00  0.00000E+00  0.00000E+00  0.00000E+00    0.17781E+02  0.16663E+02 -0.34444E+02 -0.23311E+01  0.33367E+01  0.14367E+02      982.00
  0.13465E+00  0.58190E+02    0.75000E-01  0.75000E-01 -0.15000E+00  0.00000E+00  0.00000E+00  0.00000E+00    0.17786E+02  0.16818E+02 -0.34604E+02 -0.23683E+01  0.31514E+01  0.14657E+02      982.00
  0.15695E+00  0.58622E+02    0.87500E-01  0.87500E-01 -0.17500E+00  0.00000E+00  0.00000E+00  0.00000E+00    0.17817E+02  0.16963E+02 -0.34779E+02 -0.23929E+01  0.29894E+01  0.14948E+02      982.00
  0.17920E+00  0.59066E+02    0.10000E+00  0.10000E+00 -0.20000E+00  0.00000E+00  0.00000E+00  0.00000E+00    0.17864E+02  0.17100E+02 -0.34964E+02 -0.24081E+01  0.28474E+01  0.15232E+02      982.00
  0.20139E+00  0.59519E+02    0.11250E+00  0.11250E+00 -0.22500E+00  0.00000E+00  0.00000E+00  0.00000E+00    0.17925E+02  0.17230E+02 -0.35155E+02 -0.24109E+01  0.27265E+01  0.15510E+02      982.00
  0.22354E+00  0.59956E+02    0.12500E+00  0.12500E+00 -0.25000E+00  0.00000E+00  0.00000E+00  0.00000E+00    0.17986E+02  0.17358E+02 -0.35344E+02 -0.24127E+01  0.26172E+01  0.15766E+02      982.00
  0.24565E+00  0.60388E+02    0.13750E+00  0.13750E+00 -0.27500E+00  0.00000E+00  0.00000E+00  0.00000E+00    0.18052E+02  0.17481E+02 -0.35533E+02 -0.24067E+01  0.25262E+01  0.16012E+02      982.00
  0.26772E+00  0.60789E+02    0.15000E+00  0.15000E+00 -0.30000E+00  0.00000E+00  0.00000E+00  0.00000E+00    0.18111E+02  0.17602E+02 -0.35713E+02 -0.24010E+01  0.24413E+01  0.16231E+02      982.00
  0.28975E+00  0.61181E+02    0.16250E+00  0.16250E+00 -0.32500E+00  0.00000E+00  0.00000E+00  0.00000E+00    0.18173E+02  0.17717E+02 -0.35890E+02 -0.23907E+01  0.23732E+01  0.16438E+02      982.00
  0.31174E+00  0.61537E+02    0.17500E+00  0.17500E+00 -0.35000E+00  0.00000E+00  0.00000E+00  0.00000E+00    0.18225E+02  0.17830E+02 -0.36055E+02 -0.23806E+01  0.23063E+01  0.16621E+02      982.00
  0.33372E+00  0.61879E+02    0.18750E+00  0.18750E+00 -0.37500E+00  0.00000E+00  0.00000E+00  0.00000E+00    0.18280E+02  0.17936E+02 -0.36216E+02 -0.23685E+01  0.22554E+01  0.16790E+02      982.00
  0.35566E+00  0.62195E+02    0.20000E+00  0.20000E+00 -0.40000E+00  0.00000E+00  0.00000E+00  0.00000E+00    0.18331E+02  0.18036E+02 -0.36367E+02 -0.23558E+01  0.22111E+01  0.16942E+02      982.00
  0.37759E+00  0.62484E+02    0.21250E+00  0.21250E+00 -0.42500E+00  0.00000E+00  0.00000E+00  0.00000E+00    0.18372E+02  0.18134E+02 -0.36506E+02 -0.23420E+01  0.21636E+01  0.17079E+02      982.00
  0.39950E+00  0.62746E+02    0.22500E+00  0.22500E+00 -0.45000E+00  0.00000E+00  0.00000E+00  0.00000E+00    0.18421E+02  0.18218E+02 -0.36639E+02 -0.23291E+01  0.21386E+01  0.17190E+02      982.00
  0.42140E+00  0.62972E+02    0.23750E+00  0.23750E+00 -0.47500E+00  0.00000E+00  0.00000E+00  0.00000E+00    0.18452E+02  0.18299E+02 -0.36751E+02 -0.23155E+01  0.21019E+01  0.17293E+02      982.00
  0.44328E+00  0.63229E+02    0.25000E+00  0.25000E+00 -0.50000E+00  0.00000E+00  0.00000E+00  0.00000E+00    0.18489E+02  0.18389E+02 -0.36878E+02 -0.22995E+01  0.20632E+01  0.17409E+02      982.00
  0.46516E+00  0.63406E+02    0.26250E+00  0.26250E+00 -0.52500E+00  0.00000E+00  0.00000E+00  0.00000E+00    0.18524E+02  0.18450E+02 -0.36974E+02 -0.22904E+01  0.20490E+01  0.17474E+02      982.00
  0.48702E+00  0.63592E+02    0.27500E+00  0.27500E+00 -0.55000E+00  0.00000E+00  0.00000E+00  0.00000E+00    0.18551E+02  0.18517E+02 -0.37068E+02 -0.22759E+01  0.20210E+01  0.17554E+02      982.00
  0.50888E+00  0.63771E+02    0.28750E+00  0.28750E+00 -0.57500E+00  0.00000E+00  0.00000E+00  0.00000E+00    0.18584E+02  0.18580E+02 -0.37164E+02 -0.22640E+01  0.20014E+01  0.17623E+02      982.00
  0.53074E+00  0.63952E+02    0.30000E+00  0.30000E+00 -0.60000E+00  0.00000E+00  0.00000E+00  0.00000E+00    0.18613E+02  0.18646E+02 -0.37259E+02 -0.22480E+01  0.19754E+01  0.17697E+02      982.00
  0.55258E+00  0.64101E+02    0.31250E+00  0.31250E+00 -0.62500E+00  0.00000E+00  0.00000E+00  0.00000E+00    0.18642E+02  0.18698E+02 -0.37341E+02 -0.22365E+01  0.19587E+01  0.17750E+02      982.00
  0.57443E+00  0.64237E+02    0.32500E+00  0.32500E+00 -0.65000E+00  0.00000E+00  0.00000E+00  0.00000E+00    0.18671E+02  0.18745E+02 -0.37417E+02 -0.22254E+01  0.19441E+01  0.17797E+02      982.00
  0.59627E+00  0.64363E+02    0.33750E+00  0.33750E+00 -0.67500E+00  0.00000E+00  0.00000E+00  0.00000E+00    0.18699E+02  0.18788E+02 -0.37487E+02 -0.22149E+01  0.19307E+01  0.17840E+02      982.00
  0.61811E+00  0.64479E+02    0.35000E+00  0.35000E+00 -0.70000E+00  0.00000E+00  0.00000E+00  0.00000E+00    0.18726E+02  0.18827E+02 -0.37553E+02 -0.22048E+01  0.19181E+01  0.17878E+02      982.00
  0.63995E+00  0.64586E+02    0.36250E+00  0.36250E+00 -0.72500E+00  0.00000E+00  0.00000E+00  0.00000E+00    0.18752E+02  0.18862E+02 -0.37614E+02 -0.21952E+01  0.19064E+01  0.17912E+02      982.00
  0.66179E+00  0.64705E+02    0.37500E+00  0.37500E+00 -0.75000E+00  0.00000E+00  0.00000E+00  0.00000E+00    0.18781E+02  0.18901E+02 -0.37682E+02 -0.21798E+01  0.18867E+01  0.17954E+02      982.00
  0.68363E+00  0.64794E+02    0.38750E+00  0.38750E+00 -0.77500E+00  0.00000E+00  0.00000E+00  0.00000E+00    0.18806E+02  0.18928E+02 -0.37734E+02 -0.21703E+01  0.18744E+01  0.17981E+02      982.00
  0.70547E+00  0.64877E+02    0.40000E+00  0.40000E+00 -0.80000E+00  0.00000E+00  0.00000E+00  0.00000E+00    0.18831E+02  0.18952E+02 -0.37783E+02 -0.21626E+01  0.18646E+01  0.18006E+02      982.00
  0.72731E+00  0.64930E+02    0.41250E+00  0.41250E+00 -0.82500E+00  0.00000E+00  0.00000E+00  0.00000E+00    0.18848E+02  0.18966E+02 -0.37814E+02 -0.21595E+01  0.18598E+01  0.18021E+02      982.00
  0.74915E+00  0.65007E+02    0.42500E+00  0.42500E+00 -0.85000E+00  0.00000E+00  0.00000E+00  0.00000E+00    0.18874E+02  0.18986E+02 -0.37860E+02 -0.21534E+01  0.18525E+01  0.18042E+02      982.00
  0.77099E+00  0.65074E+02    0.43750E+00  0.43750E+00 -0.87500E+00  0.00000E+00  0.00000E+00  0.00000E+00    0.18898E+02  0.19003E+02 -0.37901E+02 -0.21472E+01  0.18445E+01  0.18061E+02      982.00
  0.79283E+00  0.65138E+02    0.45000E+00  0.45000E+00 -0.90000E+00  0.00000E+00  0.00000E+00  0.00000E+00    0.18922E+02  0.19018E+02 -0.37939E+02 -0.21414E+01  0.18367E+01  0.18078E+02      982.00
  0.81467E+00  0.65197E+02    0.46250E+00  0.46250E+00 -0.92500E+00  0.00000E+00  0.00000E+00  0.00000E+00    0.18946E+02  0.19030E+02 -0.37976E+02 -0.21361E+01  0.18293E+01  0.18094E+02      982.00
  0.83651E+00  0.65282E+02    0.47500E+00  0.47500E+00 -0.95000E+00  0.00000E+00  0.00000E+00  0.00000E+00    0.18982E+02  0.19043E+02 -0.38026E+02 -0.21257E+01  0.18133E+01  0.18119E+02      982.00
  0.85836E+00  0.65305E+02    0.48750E+00  0.48750E+00 -0.97500E+00  0.00000E+00  0.00000E+00  0.00000E+00    0.18992E+02  0.19049E+02 -0.38041E+02 -0.21256E+01  0.18132E+01  0.18122E+02      982.00
  0.88020E+00  0.65312E+02    0.50000E+00  0.50000E+00 -0.10000E+01  0.00000E+00  0.00000E+00  0.00000E+00    0.18987E+02  0.19056E+02 -0.38044E+02 -0.21314E+01  0.18160E+01  0.18126E+02      982.00
