          Evm          Svm            E11          E22          E33          E23          E13          E12         SDEV11       SDEV22       SDEV33       SDEV23       SDEV13       SDEV12      TEMP
  0.00000E+00  0.57887E+02    0.00000E+00  0.00000E+00  0.00000E+00  0.00000E+00  0.00000E+00  0.00000E+00    0.15362E+02  0.21054E+02 -0.36416E+02 -0.43052E+01  0.90991E+00  0.97434E+01      982.00
  0.23591E-01  0.57948E+02    0.12500E-01  0.12500E-01 -0.25000E-01  0.00000E+00  0.00000E+00  0.00000E+00    0.15892E+02  0.20545E+02 -0.36437E+02 -0.39616E+01  0.89410E+00  0.10084E+02      982.00
  0.47170E-01  0.58107E+02    0.25000E-01  0.25000E-01 -0.50000E-01  0.00000E+00  0.00000E+00  0.00000E+00    0.16442E+02  0.20054E+02 -0.36496E+02 -0.36822E+01  0.95128E+00  0.10430E+02      982.00
  0.70723E-01  0.58329E+02    0.37500E-01  0.37500E-01 -0.75000E-01  0.00000E+00  0.00000E+00  0.00000E+00    0.16994E+02  0.19580E+02 -0.36574E+02 -0.34448E+01  0.10620E+01  0.10779E+02      982.00
  0.94237E-01  0.58599E+02    0.50000E-01  0.50000E-01 -0.10000E+00  0.00000E+00  0.00000E+00  0.00000E+00    0.17499E+02  0.19167E+02 -0.36666E+02 -0.32639E+01  0.11948E+01  0.11116E+02      982.00
  0.11770E+00  0.58920E+02    0.62500E-01  0.62500E-01 -0.12500E+00  0.00000E+00  0.00000E+00  0.00000E+00    0.17956E+02  0.18820E+02 -0.36775E+02 -0.31206E+01  0.13377E+01  0.11452E+02      982.00
  0.14111E+00  0.59289E+02    0.75000E-01  0.75000E-01 -0.15000E+00  0.00000E+00  0.00000E+00  0.00000E+00    0.18354E+02  0.18552E+02 -0.36905E+02 -0.30118E+01  0.14732E+01  0.11789E+02      982.00
  0.16445E+00  0.59698E+02    0.87500E-01  0.87500E-01 -0.17500E+00  0.00000E+00  0.00000E+00  0.00000E+00    0.18703E+02  0.18351E+02 -0.37054E+02 -0.29253E+01  0.15985E+01  0.12127E+02      982.00
  0.18772E+00  0.60135E+02    0.10000E+00  0.10000E+00 -0.20000E+00  0.00000E+00  0.00000E+00  0.00000E+00    0.19012E+02  0.18204E+02 -0.37216E+02 -0.28528E+01  0.17134E+01  0.12465E+02      982.00
  0.21093E+00  0.60586E+02    0.11250E+00  0.11250E+00 -0.22500E+00  0.00000E+00  0.00000E+00  0.00000E+00    0.19278E+02  0.18110E+02 -0.37388E+02 -0.27965E+01  0.18106E+01  0.12796E+02      982.00
  0.23407E+00  0.61046E+02    0.12500E+00  0.12500E+00 -0.25000E+00  0.00000E+00  0.00000E+00  0.00000E+00    0.19516E+02  0.18049E+02 -0.37564E+02 -0.27486E+01  0.18977E+01  0.13122E+02      982.00
  0.25715E+00  0.61505E+02    0.13750E+00  0.13750E+00 -0.27500E+00  0.00000E+00  0.00000E+00  0.00000E+00    0.19727E+02  0.18015E+02 -0.37742E+02 -0.27115E+01  0.19754E+01  0.13440E+02      982.00
  0.28016E+00  0.61968E+02    0.15000E+00  0.15000E+00 -0.30000E+00  0.00000E+00  0.00000E+00  0.00000E+00    0.19910E+02  0.18011E+02 -0.37921E+02 -0.26930E+01  0.20441E+01  0.13754E+02      982.00
  0.30311E+00  0.62405E+02    0.16250E+00  0.16250E+00 -0.32500E+00  0.00000E+00  0.00000E+00  0.00000E+00    0.20080E+02  0.18005E+02 -0.38085E+02 -0.26856E+01  0.21267E+01  0.14053E+02      982.00
  0.32599E+00  0.62823E+02    0.17500E+00  0.17500E+00 -0.35000E+00  0.00000E+00  0.00000E+00  0.00000E+00    0.20220E+02  0.18015E+02 -0.38234E+02 -0.27017E+01  0.22152E+01  0.14344E+02      982.00
  0.34882E+00  0.63192E+02    0.18750E+00  0.18750E+00 -0.37500E+00  0.00000E+00  0.00000E+00  0.00000E+00    0.20333E+02  0.18027E+02 -0.38359E+02 -0.27225E+01  0.23042E+01  0.14611E+02      982.00
  0.37158E+00  0.63511E+02    0.20000E+00  0.20000E+00 -0.40000E+00  0.00000E+00  0.00000E+00  0.00000E+00    0.20415E+02  0.18049E+02 -0.38465E+02 -0.27290E+01  0.23635E+01  0.14848E+02      982.00
  0.39429E+00  0.63789E+02    0.21250E+00  0.21250E+00 -0.42500E+00  0.00000E+00  0.00000E+00  0.00000E+00    0.20469E+02  0.18087E+02 -0.38556E+02 -0.27191E+01  0.23784E+01  0.15065E+02      982.00
  0.41696E+00  0.64074E+02    0.22500E+00  0.22500E+00 -0.45000E+00  0.00000E+00  0.00000E+00  0.00000E+00    0.20515E+02  0.18135E+02 -0.38650E+02 -0.26720E+01  0.23480E+01  0.15298E+02      982.00
  0.43958E+00  0.64320E+02    0.23750E+00  0.23750E+00 -0.47500E+00  0.00000E+00  0.00000E+00  0.00000E+00    0.20542E+02  0.18190E+02 -0.38732E+02 -0.26216E+01  0.22814E+01  0.15506E+02      982.00
  0.46216E+00  0.64554E+02    0.25000E+00  0.25000E+00 -0.50000E+00  0.00000E+00  0.00000E+00  0.00000E+00    0.20569E+02  0.18237E+02 -0.38806E+02 -0.25656E+01  0.22049E+01  0.15711E+02      982.00
  0.48470E+00  0.64777E+02    0.26250E+00  0.26250E+00 -0.52500E+00  0.00000E+00  0.00000E+00  0.00000E+00    0.20597E+02  0.18279E+02 -0.38875E+02 -0.24982E+01  0.21187E+01  0.15911E+02      982.00
  0.50721E+00  0.64989E+02    0.27500E+00  0.27500E+00 -0.55000E+00  0.00000E+00  0.00000E+00  0.00000E+00    0.20626E+02  0.18313E+02 -0.38938E+02 -0.24291E+01  0.20314E+01  0.16104E+02      982.00
  0.52968E+00  0.65189E+02    0.28750E+00  0.28750E+00 -0.57500E+00  0.00000E+00  0.00000E+00  0.00000E+00    0.20657E+02  0.18339E+02 -0.38996E+02 -0.23615E+01  0.19467E+01  0.16288E+02      982.00
  0.55211E+00  0.65377E+02    0.30000E+00  0.30000E+00 -0.60000E+00  0.00000E+00  0.00000E+00  0.00000E+00    0.20689E+02  0.18359E+02 -0.39048E+02 -0.22980E+01  0.18673E+01  0.16463E+02      982.00
  0.57451E+00  0.65554E+02    0.31250E+00  0.31250E+00 -0.62500E+00  0.00000E+00  0.00000E+00  0.00000E+00    0.20724E+02  0.18372E+02 -0.39096E+02 -0.22399E+01  0.17946E+01  0.16626E+02      982.00
  0.59687E+00  0.65718E+02    0.32500E+00  0.32500E+00 -0.65000E+00  0.00000E+00  0.00000E+00  0.00000E+00    0.20760E+02  0.18379E+02 -0.39139E+02 -0.21753E+01  0.17144E+01  0.16782E+02      982.00
  0.61921E+00  0.65871E+02    0.33750E+00  0.33750E+00 -0.67500E+00  0.00000E+00  0.00000E+00  0.00000E+00    0.20798E+02  0.18381E+02 -0.39179E+02 -0.21312E+01  0.16576E+01  0.16921E+02      982.00
  0.64151E+00  0.66015E+02    0.35000E+00  0.35000E+00 -0.70000E+00  0.00000E+00  0.00000E+00  0.00000E+00    0.20838E+02  0.18381E+02 -0.39218E+02 -0.20991E+01  0.16148E+01  0.17046E+02      982.00
  0.66379E+00  0.66149E+02    0.36250E+00  0.36250E+00 -0.72500E+00  0.00000E+00  0.00000E+00  0.00000E+00    0.20878E+02  0.18375E+02 -0.39253E+02 -0.20662E+01  0.15724E+01  0.17164E+02      982.00
  0.68604E+00  0.66273E+02    0.37500E+00  0.37500E+00 -0.75000E+00  0.00000E+00  0.00000E+00  0.00000E+00    0.20920E+02  0.18366E+02 -0.39286E+02 -0.20383E+01  0.15357E+01  0.17273E+02      982.00
  0.70827E+00  0.66388E+02    0.38750E+00  0.38750E+00 -0.77500E+00  0.00000E+00  0.00000E+00  0.00000E+00    0.20962E+02  0.18355E+02 -0.39316E+02 -0.20153E+01  0.15045E+01  0.17371E+02      982.00
  0.73048E+00  0.66488E+02    0.40000E+00  0.40000E+00 -0.80000E+00  0.00000E+00  0.00000E+00  0.00000E+00    0.21007E+02  0.18337E+02 -0.39344E+02 -0.19905E+01  0.14714E+01  0.17454E+02      982.00
  0.75267E+00  0.66580E+02    0.41250E+00  0.41250E+00 -0.82500E+00  0.00000E+00  0.00000E+00  0.00000E+00    0.21047E+02  0.18321E+02 -0.39368E+02 -0.19764E+01  0.14508E+01  0.17533E+02      982.00
  0.77484E+00  0.66664E+02    0.42500E+00  0.42500E+00 -0.85000E+00  0.00000E+00  0.00000E+00  0.00000E+00    0.21076E+02  0.18316E+02 -0.39392E+02 -0.19762E+01  0.14446E+01  0.17597E+02      982.00
  0.79700E+00  0.66750E+02    0.43750E+00  0.43750E+00 -0.87500E+00  0.00000E+00  0.00000E+00  0.00000E+00    0.21118E+02  0.18299E+02 -0.39416E+02 -0.19658E+01  0.14283E+01  0.17666E+02      982.00
  0.81915E+00  0.66822E+02    0.45000E+00  0.45000E+00 -0.90000E+00  0.00000E+00  0.00000E+00  0.00000E+00    0.21165E+02  0.18274E+02 -0.39439E+02 -0.19515E+01  0.14083E+01  0.17718E+02      982.00
  0.84128E+00  0.66899E+02    0.46250E+00  0.46250E+00 -0.92500E+00  0.00000E+00  0.00000E+00  0.00000E+00    0.21207E+02  0.18255E+02 -0.39461E+02 -0.19463E+01  0.13981E+01  0.17776E+02      982.00
  0.86340E+00  0.66975E+02    0.47500E+00  0.47500E+00 -0.95000E+00  0.00000E+00  0.00000E+00  0.00000E+00    0.21262E+02  0.18221E+02 -0.39483E+02 -0.19365E+01  0.13832E+01  0.17835E+02      982.00
  0.88551E+00  0.67038E+02    0.48750E+00  0.48750E+00 -0.97500E+00  0.00000E+00  0.00000E+00  0.00000E+00    0.21302E+02  0.18199E+02 -0.39501E+02 -0.19349E+01  0.13775E+01  0.17881E+02      982.00
  0.90760E+00  0.67096E+02    0.50000E+00  0.50000E+00 -0.10000E+01  0.00000E+00  0.00000E+00  0.00000E+00    0.21341E+02  0.18178E+02 -0.39519E+02 -0.19350E+01  0.13737E+01  0.17922E+02      982.00
