          Evm          Svm            E11          E22          E33          E23          E13          E12         SDEV11       SDEV22       SDEV33       SDEV23       SDEV13       SDEV12      TEMP
  0.00000E+00  0.61005E+02    0.00000E+00  0.00000E+00  0.00000E+00  0.00000E+00  0.00000E+00  0.00000E+00    0.21894E+02  0.15818E+02 -0.37712E+02  0.63005E+01  0.42028E+01 -0.10358E+02      982.00
  0.23182E-01  0.60964E+02    0.12500E-01  0.12500E-01 -0.25000E-01  0.00000E+00  0.00000E+00  0.00000E+00    0.21888E+02  0.15938E+02 -0.37827E+02  0.60746E+01  0.42147E+01 -0.10111E+02      982.00
  0.46449E-01  0.60991E+02    0.25000E-01  0.25000E-01 -0.50000E-01  0.00000E+00  0.00000E+00  0.00000E+00    0.21894E+02  0.16066E+02 -0.37960E+02  0.58445E+01  0.43397E+01 -0.98873E+01      982.00
  0.69789E-01  0.61097E+02    0.37500E-01  0.37500E-01 -0.75000E-01  0.00000E+00  0.00000E+00  0.00000E+00    0.21933E+02  0.16184E+02 -0.38117E+02  0.56313E+01  0.45190E+01 -0.97051E+01      982.00
  0.93185E-01  0.61273E+02    0.50000E-01  0.50000E-01 -0.10000E+00  0.00000E+00  0.00000E+00  0.00000E+00    0.22014E+02  0.16285E+02 -0.38299E+02  0.54483E+01  0.46960E+01 -0.95613E+01      982.00
  0.11662E+00  0.61499E+02    0.62500E-01  0.62500E-01 -0.12500E+00  0.00000E+00  0.00000E+00  0.00000E+00    0.22125E+02  0.16372E+02 -0.38497E+02  0.53023E+01  0.48404E+01 -0.94524E+01      982.00
  0.14010E+00  0.61766E+02    0.75000E-01  0.75000E-01 -0.15000E+00  0.00000E+00  0.00000E+00  0.00000E+00    0.22266E+02  0.16446E+02 -0.38712E+02  0.51879E+01  0.49439E+01 -0.93747E+01      982.00
  0.16360E+00  0.62068E+02    0.87500E-01  0.87500E-01 -0.17500E+00  0.00000E+00  0.00000E+00  0.00000E+00    0.22440E+02  0.16502E+02 -0.38942E+02  0.50941E+01  0.50103E+01 -0.93218E+01      982.00
  0.18713E+00  0.62398E+02    0.10000E+00  0.10000E+00 -0.20000E+00  0.00000E+00  0.00000E+00  0.00000E+00    0.22633E+02  0.16552E+02 -0.39185E+02  0.50242E+01  0.50417E+01 -0.92922E+01      982.00
  0.21068E+00  0.62749E+02    0.11250E+00  0.11250E+00 -0.22500E+00  0.00000E+00  0.00000E+00  0.00000E+00    0.22851E+02  0.16586E+02 -0.39437E+02  0.49648E+01  0.50475E+01 -0.92756E+01      982.00
  0.23425E+00  0.63119E+02    0.12500E+00  0.12500E+00 -0.25000E+00  0.00000E+00  0.00000E+00  0.00000E+00    0.23081E+02  0.16619E+02 -0.39699E+02  0.49235E+01  0.50310E+01 -0.92726E+01      982.00
  0.25783E+00  0.63500E+02    0.13750E+00  0.13750E+00 -0.27500E+00  0.00000E+00  0.00000E+00  0.00000E+00    0.23322E+02  0.16644E+02 -0.39966E+02  0.48929E+01  0.49985E+01 -0.92751E+01      982.00
  0.28144E+00  0.63879E+02    0.15000E+00  0.15000E+00 -0.30000E+00  0.00000E+00  0.00000E+00  0.00000E+00    0.23576E+02  0.16655E+02 -0.40231E+02  0.48654E+01  0.49562E+01 -0.92760E+01      982.00
  0.30505E+00  0.64263E+02    0.16250E+00  0.16250E+00 -0.32500E+00  0.00000E+00  0.00000E+00  0.00000E+00    0.23829E+02  0.16669E+02 -0.40498E+02  0.48509E+01  0.49040E+01 -0.92774E+01      982.00
  0.32869E+00  0.64641E+02    0.17500E+00  0.17500E+00 -0.35000E+00  0.00000E+00  0.00000E+00  0.00000E+00    0.24083E+02  0.16678E+02 -0.40762E+02  0.48428E+01  0.48460E+01 -0.92741E+01      982.00
  0.35233E+00  0.65008E+02    0.18750E+00  0.18750E+00 -0.37500E+00  0.00000E+00  0.00000E+00  0.00000E+00    0.24337E+02  0.16682E+02 -0.41019E+02  0.48392E+01  0.47845E+01 -0.92636E+01      982.00
  0.37600E+00  0.65362E+02    0.20000E+00  0.20000E+00 -0.40000E+00  0.00000E+00  0.00000E+00  0.00000E+00    0.24587E+02  0.16680E+02 -0.41267E+02  0.48393E+01  0.47208E+01 -0.92450E+01      982.00
  0.39967E+00  0.65695E+02    0.21250E+00  0.21250E+00 -0.42500E+00  0.00000E+00  0.00000E+00  0.00000E+00    0.24840E+02  0.16663E+02 -0.41503E+02  0.48377E+01  0.46593E+01 -0.92161E+01      982.00
  0.42336E+00  0.66017E+02    0.22500E+00  0.22500E+00 -0.45000E+00  0.00000E+00  0.00000E+00  0.00000E+00    0.25081E+02  0.16651E+02 -0.41731E+02  0.48429E+01  0.45949E+01 -0.91801E+01      982.00
  0.44707E+00  0.66318E+02    0.23750E+00  0.23750E+00 -0.47500E+00  0.00000E+00  0.00000E+00  0.00000E+00    0.25311E+02  0.16637E+02 -0.41948E+02  0.48478E+01  0.45291E+01 -0.91361E+01      982.00
  0.47079E+00  0.66604E+02    0.25000E+00  0.25000E+00 -0.50000E+00  0.00000E+00  0.00000E+00  0.00000E+00    0.25539E+02  0.16615E+02 -0.42154E+02  0.48562E+01  0.44659E+01 -0.90838E+01      982.00
  0.49452E+00  0.66871E+02    0.26250E+00  0.26250E+00 -0.52500E+00  0.00000E+00  0.00000E+00  0.00000E+00    0.25762E+02  0.16587E+02 -0.42349E+02  0.48650E+01  0.44038E+01 -0.90237E+01      982.00
  0.51827E+00  0.67114E+02    0.27500E+00  0.27500E+00 -0.55000E+00  0.00000E+00  0.00000E+00  0.00000E+00    0.25983E+02  0.16543E+02 -0.42525E+02  0.48698E+01  0.43484E+01 -0.89566E+01      982.00
  0.54203E+00  0.67348E+02    0.28750E+00  0.28750E+00 -0.57500E+00  0.00000E+00  0.00000E+00  0.00000E+00    0.26193E+02  0.16505E+02 -0.42698E+02  0.48788E+01  0.42890E+01 -0.88832E+01      982.00
  0.56581E+00  0.67565E+02    0.30000E+00  0.30000E+00 -0.60000E+00  0.00000E+00  0.00000E+00  0.00000E+00    0.26396E+02  0.16464E+02 -0.42860E+02  0.48879E+01  0.42307E+01 -0.88044E+01      982.00
  0.58959E+00  0.67767E+02    0.31250E+00  0.31250E+00 -0.62500E+00  0.00000E+00  0.00000E+00  0.00000E+00    0.26592E+02  0.16419E+02 -0.43011E+02  0.48968E+01  0.41738E+01 -0.87207E+01      982.00
  0.61339E+00  0.67953E+02    0.32500E+00  0.32500E+00 -0.65000E+00  0.00000E+00  0.00000E+00  0.00000E+00    0.26782E+02  0.16370E+02 -0.43152E+02  0.49049E+01  0.41182E+01 -0.86325E+01      982.00
  0.63721E+00  0.68127E+02    0.33750E+00  0.33750E+00 -0.67500E+00  0.00000E+00  0.00000E+00  0.00000E+00    0.26967E+02  0.16317E+02 -0.43284E+02  0.49131E+01  0.40638E+01 -0.85410E+01      982.00
  0.66103E+00  0.68286E+02    0.35000E+00  0.35000E+00 -0.70000E+00  0.00000E+00  0.00000E+00  0.00000E+00    0.27156E+02  0.16249E+02 -0.43405E+02  0.49173E+01  0.40144E+01 -0.84409E+01      982.00
  0.68487E+00  0.68435E+02    0.36250E+00  0.36250E+00 -0.72500E+00  0.00000E+00  0.00000E+00  0.00000E+00    0.27330E+02  0.16191E+02 -0.43521E+02  0.49241E+01  0.39625E+01 -0.83442E+01      982.00
  0.70872E+00  0.68574E+02    0.37500E+00  0.37500E+00 -0.75000E+00  0.00000E+00  0.00000E+00  0.00000E+00    0.27497E+02  0.16131E+02 -0.43628E+02  0.49309E+01  0.39113E+01 -0.82457E+01      982.00
  0.73258E+00  0.68702E+02    0.38750E+00  0.38750E+00 -0.77500E+00  0.00000E+00  0.00000E+00  0.00000E+00    0.27659E+02  0.16070E+02 -0.43728E+02  0.49374E+01  0.38611E+01 -0.81459E+01      982.00
  0.75644E+00  0.68821E+02    0.40000E+00  0.40000E+00 -0.80000E+00  0.00000E+00  0.00000E+00  0.00000E+00    0.27815E+02  0.16006E+02 -0.43821E+02  0.49435E+01  0.38119E+01 -0.80451E+01      982.00
  0.78032E+00  0.68932E+02    0.41250E+00  0.41250E+00 -0.82500E+00  0.00000E+00  0.00000E+00  0.00000E+00    0.27986E+02  0.15924E+02 -0.43910E+02  0.49463E+01  0.37601E+01 -0.79281E+01      982.00
  0.80421E+00  0.69035E+02    0.42500E+00  0.42500E+00 -0.85000E+00  0.00000E+00  0.00000E+00  0.00000E+00    0.28133E+02  0.15857E+02 -0.43991E+02  0.49508E+01  0.37129E+01 -0.78265E+01      982.00
  0.82811E+00  0.69130E+02    0.43750E+00  0.43750E+00 -0.87500E+00  0.00000E+00  0.00000E+00  0.00000E+00    0.28275E+02  0.15791E+02 -0.44066E+02  0.49559E+01  0.36662E+01 -0.77250E+01      982.00
  0.85201E+00  0.69218E+02    0.45000E+00  0.45000E+00 -0.90000E+00  0.00000E+00  0.00000E+00  0.00000E+00    0.28412E+02  0.15724E+02 -0.44136E+02  0.49609E+01  0.36202E+01 -0.76237E+01      982.00
  0.87592E+00  0.69239E+02    0.46250E+00  0.46250E+00 -0.92500E+00  0.00000E+00  0.00000E+00  0.00000E+00    0.28507E+02  0.15661E+02 -0.44168E+02  0.49455E+01  0.35490E+01 -0.75220E+01      982.00
  0.89984E+00  0.69262E+02    0.47500E+00  0.47500E+00 -0.95000E+00  0.00000E+00  0.00000E+00  0.00000E+00    0.28606E+02  0.15592E+02 -0.44199E+02  0.49344E+01  0.34925E+01 -0.74206E+01      982.00
  0.92377E+00  0.69283E+02    0.48750E+00  0.48750E+00 -0.97500E+00  0.00000E+00  0.00000E+00  0.00000E+00    0.28701E+02  0.15525E+02 -0.44227E+02  0.49220E+01  0.34346E+01 -0.73216E+01      982.00
  0.94771E+00  0.69302E+02    0.50000E+00  0.50000E+00 -0.10000E+01  0.00000E+00  0.00000E+00  0.00000E+00    0.28794E+02  0.15459E+02 -0.44253E+02  0.49099E+01  0.33779E+01 -0.72247E+01      982.00
