          Evm          Svm            E11          E22          E33          E23          E13          E12         SDEV11       SDEV22       SDEV33       SDEV23       SDEV13       SDEV12      TEMP
  0.00000E+00  0.57653E+02    0.00000E+00  0.00000E+00  0.00000E+00  0.00000E+00  0.00000E+00  0.00000E+00    0.21756E+02  0.14256E+02 -0.36012E+02 -0.19652E+00  0.41028E+01  0.10217E+02      982.00
  0.23424E-01  0.57722E+02    0.12500E-01  0.12500E-01 -0.25000E-01  0.00000E+00  0.00000E+00  0.00000E+00    0.21278E+02  0.14750E+02 -0.36028E+02 -0.38080E+00  0.39051E+01  0.10538E+02      982.00
  0.46830E-01  0.57882E+02    0.25000E-01  0.25000E-01 -0.50000E-01  0.00000E+00  0.00000E+00  0.00000E+00    0.20806E+02  0.15274E+02 -0.36080E+02 -0.59154E+00  0.37318E+01  0.10885E+02      982.00
  0.70205E-01  0.58094E+02    0.37500E-01  0.37500E-01 -0.75000E-01  0.00000E+00  0.00000E+00  0.00000E+00    0.20359E+02  0.15787E+02 -0.36146E+02 -0.81471E+00  0.35816E+01  0.11240E+02      982.00
  0.93538E-01  0.58352E+02    0.50000E-01  0.50000E-01 -0.10000E+00  0.00000E+00  0.00000E+00  0.00000E+00    0.19977E+02  0.16246E+02 -0.36222E+02 -0.10317E+01  0.34608E+01  0.11595E+02      982.00
  0.11682E+00  0.58662E+02    0.62500E-01  0.62500E-01 -0.12500E+00  0.00000E+00  0.00000E+00  0.00000E+00    0.19672E+02  0.16642E+02 -0.36314E+02 -0.12360E+01  0.33631E+01  0.11955E+02      982.00
  0.14003E+00  0.59018E+02    0.75000E-01  0.75000E-01 -0.15000E+00  0.00000E+00  0.00000E+00  0.00000E+00    0.19447E+02  0.16976E+02 -0.36423E+02 -0.14228E+01  0.32843E+01  0.12319E+02      982.00
  0.16317E+00  0.59408E+02    0.87500E-01  0.87500E-01 -0.17500E+00  0.00000E+00  0.00000E+00  0.00000E+00    0.19293E+02  0.17251E+02 -0.36544E+02 -0.15888E+01  0.32224E+01  0.12684E+02      982.00
  0.18624E+00  0.59817E+02    0.10000E+00  0.10000E+00 -0.20000E+00  0.00000E+00  0.00000E+00  0.00000E+00    0.19185E+02  0.17488E+02 -0.36673E+02 -0.17402E+01  0.31684E+01  0.13046E+02      982.00
  0.20923E+00  0.60229E+02    0.11250E+00  0.11250E+00 -0.22500E+00  0.00000E+00  0.00000E+00  0.00000E+00    0.19118E+02  0.17686E+02 -0.36804E+02 -0.18733E+01  0.31244E+01  0.13397E+02      982.00
  0.23215E+00  0.60637E+02    0.12500E+00  0.12500E+00 -0.25000E+00  0.00000E+00  0.00000E+00  0.00000E+00    0.19070E+02  0.17863E+02 -0.36934E+02 -0.19956E+01  0.30835E+01  0.13737E+02      982.00
  0.25499E+00  0.61030E+02    0.13750E+00  0.13750E+00 -0.27500E+00  0.00000E+00  0.00000E+00  0.00000E+00    0.19039E+02  0.18018E+02 -0.37057E+02 -0.21034E+01  0.30486E+01  0.14059E+02      982.00
  0.27776E+00  0.61408E+02    0.15000E+00  0.15000E+00 -0.30000E+00  0.00000E+00  0.00000E+00  0.00000E+00    0.19011E+02  0.18164E+02 -0.37175E+02 -0.22032E+01  0.30144E+01  0.14366E+02      982.00
  0.30046E+00  0.61759E+02    0.16250E+00  0.16250E+00 -0.32500E+00  0.00000E+00  0.00000E+00  0.00000E+00    0.18986E+02  0.18296E+02 -0.37282E+02 -0.22923E+01  0.29830E+01  0.14651E+02      982.00
  0.32310E+00  0.62085E+02    0.17500E+00  0.17500E+00 -0.35000E+00  0.00000E+00  0.00000E+00  0.00000E+00    0.18958E+02  0.18422E+02 -0.37380E+02 -0.23736E+01  0.29525E+01  0.14916E+02      982.00
  0.34567E+00  0.62390E+02    0.18750E+00  0.18750E+00 -0.37500E+00  0.00000E+00  0.00000E+00  0.00000E+00    0.18922E+02  0.18547E+02 -0.37469E+02 -0.24508E+01  0.29203E+01  0.15165E+02      982.00
  0.36819E+00  0.62669E+02    0.20000E+00  0.20000E+00 -0.40000E+00  0.00000E+00  0.00000E+00  0.00000E+00    0.18886E+02  0.18663E+02 -0.37549E+02 -0.25175E+01  0.28908E+01  0.15394E+02      982.00
  0.39066E+00  0.62926E+02    0.21250E+00  0.21250E+00 -0.42500E+00  0.00000E+00  0.00000E+00  0.00000E+00    0.18846E+02  0.18775E+02 -0.37621E+02 -0.25770E+01  0.28623E+01  0.15606E+02      982.00
  0.41308E+00  0.63162E+02    0.22500E+00  0.22500E+00 -0.45000E+00  0.00000E+00  0.00000E+00  0.00000E+00    0.18804E+02  0.18882E+02 -0.37686E+02 -0.26294E+01  0.28346E+01  0.15802E+02      982.00
  0.43546E+00  0.63387E+02    0.23750E+00  0.23750E+00 -0.47500E+00  0.00000E+00  0.00000E+00  0.00000E+00    0.18758E+02  0.18990E+02 -0.37747E+02 -0.26777E+01  0.28066E+01  0.15988E+02      982.00
  0.45779E+00  0.63586E+02    0.25000E+00  0.25000E+00 -0.50000E+00  0.00000E+00  0.00000E+00  0.00000E+00    0.18713E+02  0.19087E+02 -0.37799E+02 -0.27164E+01  0.27809E+01  0.16155E+02      982.00
  0.48008E+00  0.63769E+02    0.26250E+00  0.26250E+00 -0.52500E+00  0.00000E+00  0.00000E+00  0.00000E+00    0.18662E+02  0.19184E+02 -0.37846E+02 -0.27525E+01  0.27540E+01  0.16311E+02      982.00
  0.50234E+00  0.63940E+02    0.27500E+00  0.27500E+00 -0.55000E+00  0.00000E+00  0.00000E+00  0.00000E+00    0.18619E+02  0.19271E+02 -0.37890E+02 -0.27783E+01  0.27309E+01  0.16455E+02      982.00
  0.52456E+00  0.64095E+02    0.28750E+00  0.28750E+00 -0.57500E+00  0.00000E+00  0.00000E+00  0.00000E+00    0.18576E+02  0.19353E+02 -0.37929E+02 -0.27978E+01  0.27087E+01  0.16586E+02      982.00
  0.54675E+00  0.64233E+02    0.30000E+00  0.30000E+00 -0.60000E+00  0.00000E+00  0.00000E+00  0.00000E+00    0.18530E+02  0.19432E+02 -0.37962E+02 -0.28156E+01  0.26840E+01  0.16706E+02      982.00
  0.56891E+00  0.64365E+02    0.31250E+00  0.31250E+00 -0.62500E+00  0.00000E+00  0.00000E+00  0.00000E+00    0.18492E+02  0.19503E+02 -0.37995E+02 -0.28245E+01  0.26633E+01  0.16819E+02      982.00
  0.59105E+00  0.64492E+02    0.32500E+00  0.32500E+00 -0.65000E+00  0.00000E+00  0.00000E+00  0.00000E+00    0.18454E+02  0.19572E+02 -0.38027E+02 -0.28317E+01  0.26429E+01  0.16928E+02      982.00
  0.61316E+00  0.64576E+02    0.33750E+00  0.33750E+00 -0.67500E+00  0.00000E+00  0.00000E+00  0.00000E+00    0.18411E+02  0.19634E+02 -0.38045E+02 -0.28331E+01  0.26159E+01  0.17006E+02      982.00
  0.63525E+00  0.64682E+02    0.35000E+00  0.35000E+00 -0.70000E+00  0.00000E+00  0.00000E+00  0.00000E+00    0.18381E+02  0.19690E+02 -0.38071E+02 -0.28287E+01  0.25964E+01  0.17099E+02      982.00
  0.65733E+00  0.64780E+02    0.36250E+00  0.36250E+00 -0.72500E+00  0.00000E+00  0.00000E+00  0.00000E+00    0.18354E+02  0.19740E+02 -0.38095E+02 -0.28204E+01  0.25775E+01  0.17185E+02      982.00
  0.67938E+00  0.64870E+02    0.37500E+00  0.37500E+00 -0.75000E+00  0.00000E+00  0.00000E+00  0.00000E+00    0.18330E+02  0.19787E+02 -0.38116E+02 -0.28092E+01  0.25584E+01  0.17265E+02      982.00
  0.70141E+00  0.64952E+02    0.38750E+00  0.38750E+00 -0.77500E+00  0.00000E+00  0.00000E+00  0.00000E+00    0.18307E+02  0.19829E+02 -0.38136E+02 -0.27954E+01  0.25390E+01  0.17339E+02      982.00
  0.72343E+00  0.65003E+02    0.40000E+00  0.40000E+00 -0.80000E+00  0.00000E+00  0.00000E+00  0.00000E+00    0.18279E+02  0.19869E+02 -0.38148E+02 -0.27754E+01  0.25097E+01  0.17390E+02      982.00
  0.74544E+00  0.65077E+02    0.41250E+00  0.41250E+00 -0.82500E+00  0.00000E+00  0.00000E+00  0.00000E+00    0.18261E+02  0.19905E+02 -0.38166E+02 -0.27574E+01  0.24891E+01  0.17457E+02      982.00
  0.76743E+00  0.65144E+02    0.42500E+00  0.42500E+00 -0.85000E+00  0.00000E+00  0.00000E+00  0.00000E+00    0.18245E+02  0.19936E+02 -0.38182E+02 -0.27374E+01  0.24687E+01  0.17518E+02      982.00
  0.78941E+00  0.65206E+02    0.43750E+00  0.43750E+00 -0.87500E+00  0.00000E+00  0.00000E+00  0.00000E+00    0.18232E+02  0.19965E+02 -0.38197E+02 -0.27162E+01  0.24480E+01  0.17575E+02      982.00
  0.81138E+00  0.65263E+02    0.45000E+00  0.45000E+00 -0.90000E+00  0.00000E+00  0.00000E+00  0.00000E+00    0.18220E+02  0.19991E+02 -0.38211E+02 -0.26940E+01  0.24269E+01  0.17628E+02      982.00
  0.83333E+00  0.65316E+02    0.46250E+00  0.46250E+00 -0.92500E+00  0.00000E+00  0.00000E+00  0.00000E+00    0.18211E+02  0.20014E+02 -0.38225E+02 -0.26711E+01  0.24056E+01  0.17677E+02      982.00
  0.85528E+00  0.65365E+02    0.47500E+00  0.47500E+00 -0.95000E+00  0.00000E+00  0.00000E+00  0.00000E+00    0.18203E+02  0.20034E+02 -0.38237E+02 -0.26478E+01  0.23840E+01  0.17723E+02      982.00
  0.87722E+00  0.65411E+02    0.48750E+00  0.48750E+00 -0.97500E+00  0.00000E+00  0.00000E+00  0.00000E+00    0.18196E+02  0.20053E+02 -0.38249E+02 -0.26242E+01  0.23622E+01  0.17766E+02      982.00
  0.89914E+00  0.65454E+02    0.50000E+00  0.50000E+00 -0.10000E+01  0.00000E+00  0.00000E+00  0.00000E+00    0.18191E+02  0.20069E+02 -0.38260E+02 -0.26006E+01  0.23404E+01  0.17807E+02      982.00
