          Evm          Svm            E11          E22          E33          E23          E13          E12         SDEV11       SDEV22       SDEV33       SDEV23       SDEV13       SDEV12      TEMP
  0.00000E+00  0.61752E+02    0.00000E+00  0.00000E+00  0.00000E+00  0.00000E+00  0.00000E+00  0.00000E+00    0.22202E+02  0.16126E+02 -0.38328E+02  0.64442E+01  0.38766E+01 -0.10174E+02      982.00
  0.23276E-01  0.61685E+02    0.12500E-01  0.12500E-01 -0.25000E-01  0.00000E+00  0.00000E+00  0.00000E+00    0.22244E+02  0.16187E+02 -0.38431E+02  0.61930E+01  0.38712E+01 -0.99064E+01      982.00
  0.46639E-01  0.61655E+02    0.25000E-01  0.25000E-01 -0.50000E-01  0.00000E+00  0.00000E+00  0.00000E+00    0.22278E+02  0.16262E+02 -0.38540E+02  0.59343E+01  0.39818E+01 -0.96440E+01      982.00
  0.70080E-01  0.61719E+02    0.37500E-01  0.37500E-01 -0.75000E-01  0.00000E+00  0.00000E+00  0.00000E+00    0.22352E+02  0.16327E+02 -0.38680E+02  0.56930E+01  0.41691E+01 -0.94237E+01      982.00
  0.93581E-01  0.61861E+02    0.50000E-01  0.50000E-01 -0.10000E+00  0.00000E+00  0.00000E+00  0.00000E+00    0.22462E+02  0.16383E+02 -0.38844E+02  0.54914E+01  0.43656E+01 -0.92463E+01      982.00
  0.11713E+00  0.62063E+02    0.62500E-01  0.62500E-01 -0.12500E+00  0.00000E+00  0.00000E+00  0.00000E+00    0.22599E+02  0.16430E+02 -0.39030E+02  0.53305E+01  0.45340E+01 -0.91080E+01      982.00
  0.14071E+00  0.62309E+02    0.75000E-01  0.75000E-01 -0.15000E+00  0.00000E+00  0.00000E+00  0.00000E+00    0.22761E+02  0.16470E+02 -0.39231E+02  0.52051E+01  0.46611E+01 -0.90052E+01      982.00
  0.16432E+00  0.62594E+02    0.87500E-01  0.87500E-01 -0.17500E+00  0.00000E+00  0.00000E+00  0.00000E+00    0.22954E+02  0.16496E+02 -0.39450E+02  0.51038E+01  0.47494E+01 -0.89319E+01      982.00
  0.18796E+00  0.62908E+02    0.10000E+00  0.10000E+00 -0.20000E+00  0.00000E+00  0.00000E+00  0.00000E+00    0.23162E+02  0.16518E+02 -0.39680E+02  0.50276E+01  0.48000E+01 -0.88844E+01      982.00
  0.21161E+00  0.63246E+02    0.11250E+00  0.11250E+00 -0.22500E+00  0.00000E+00  0.00000E+00  0.00000E+00    0.23394E+02  0.16528E+02 -0.39921E+02  0.49640E+01  0.48227E+01 -0.88533E+01      982.00
  0.23528E+00  0.63601E+02    0.12500E+00  0.12500E+00 -0.25000E+00  0.00000E+00  0.00000E+00  0.00000E+00    0.23634E+02  0.16537E+02 -0.40170E+02  0.49186E+01  0.48206E+01 -0.88371E+01      982.00
  0.25896E+00  0.63966E+02    0.13750E+00  0.13750E+00 -0.27500E+00  0.00000E+00  0.00000E+00  0.00000E+00    0.23884E+02  0.16540E+02 -0.40424E+02  0.48843E+01  0.48009E+01 -0.88279E+01      982.00
  0.28266E+00  0.64333E+02    0.15000E+00  0.15000E+00 -0.30000E+00  0.00000E+00  0.00000E+00  0.00000E+00    0.24146E+02  0.16531E+02 -0.40677E+02  0.48539E+01  0.47699E+01 -0.88184E+01      982.00
  0.30637E+00  0.64701E+02    0.16250E+00  0.16250E+00 -0.32500E+00  0.00000E+00  0.00000E+00  0.00000E+00    0.24406E+02  0.16525E+02 -0.40931E+02  0.48361E+01  0.47279E+01 -0.88102E+01      982.00
  0.33010E+00  0.65062E+02    0.17500E+00  0.17500E+00 -0.35000E+00  0.00000E+00  0.00000E+00  0.00000E+00    0.24666E+02  0.16514E+02 -0.41180E+02  0.48246E+01  0.46793E+01 -0.87980E+01      982.00
  0.35383E+00  0.65412E+02    0.18750E+00  0.18750E+00 -0.37500E+00  0.00000E+00  0.00000E+00  0.00000E+00    0.24923E+02  0.16499E+02 -0.41422E+02  0.48176E+01  0.46264E+01 -0.87793E+01      982.00
  0.37758E+00  0.65746E+02    0.20000E+00  0.20000E+00 -0.40000E+00  0.00000E+00  0.00000E+00  0.00000E+00    0.25181E+02  0.16472E+02 -0.41653E+02  0.48093E+01  0.45738E+01 -0.87520E+01      982.00
  0.40134E+00  0.66067E+02    0.21250E+00  0.21250E+00 -0.42500E+00  0.00000E+00  0.00000E+00  0.00000E+00    0.25428E+02  0.16448E+02 -0.41877E+02  0.48090E+01  0.45171E+01 -0.87184E+01      982.00
  0.42511E+00  0.66373E+02    0.22500E+00  0.22500E+00 -0.45000E+00  0.00000E+00  0.00000E+00  0.00000E+00    0.25667E+02  0.16425E+02 -0.42092E+02  0.48102E+01  0.44577E+01 -0.86762E+01      982.00
  0.44889E+00  0.66652E+02    0.23750E+00  0.23750E+00 -0.47500E+00  0.00000E+00  0.00000E+00  0.00000E+00    0.25904E+02  0.16384E+02 -0.42289E+02  0.48077E+01  0.44048E+01 -0.86271E+01      982.00
  0.47268E+00  0.66922E+02    0.25000E+00  0.25000E+00 -0.50000E+00  0.00000E+00  0.00000E+00  0.00000E+00    0.26131E+02  0.16349E+02 -0.42480E+02  0.48126E+01  0.43484E+01 -0.85711E+01      982.00
  0.49648E+00  0.67174E+02    0.26250E+00  0.26250E+00 -0.52500E+00  0.00000E+00  0.00000E+00  0.00000E+00    0.26349E+02  0.16310E+02 -0.42660E+02  0.48183E+01  0.42926E+01 -0.85086E+01      982.00
  0.52030E+00  0.67409E+02    0.27500E+00  0.27500E+00 -0.55000E+00  0.00000E+00  0.00000E+00  0.00000E+00    0.26560E+02  0.16268E+02 -0.42828E+02  0.48245E+01  0.42378E+01 -0.84401E+01      982.00
  0.54412E+00  0.67627E+02    0.28750E+00  0.28750E+00 -0.57500E+00  0.00000E+00  0.00000E+00  0.00000E+00    0.26764E+02  0.16222E+02 -0.42986E+02  0.48308E+01  0.41840E+01 -0.83663E+01      982.00
  0.56796E+00  0.67825E+02    0.30000E+00  0.30000E+00 -0.60000E+00  0.00000E+00  0.00000E+00  0.00000E+00    0.26966E+02  0.16164E+02 -0.43129E+02  0.48320E+01  0.41373E+01 -0.82882E+01      982.00
  0.59181E+00  0.68014E+02    0.31250E+00  0.31250E+00 -0.62500E+00  0.00000E+00  0.00000E+00  0.00000E+00    0.27155E+02  0.16113E+02 -0.43267E+02  0.48381E+01  0.40857E+01 -0.82062E+01      982.00
  0.61566E+00  0.68188E+02    0.32500E+00  0.32500E+00 -0.65000E+00  0.00000E+00  0.00000E+00  0.00000E+00    0.27336E+02  0.16060E+02 -0.43396E+02  0.48439E+01  0.40350E+01 -0.81209E+01      982.00
  0.63953E+00  0.68351E+02    0.33750E+00  0.33750E+00 -0.67500E+00  0.00000E+00  0.00000E+00  0.00000E+00    0.27511E+02  0.16005E+02 -0.43516E+02  0.48500E+01  0.39852E+01 -0.80336E+01      982.00
  0.66340E+00  0.68501E+02    0.35000E+00  0.35000E+00 -0.70000E+00  0.00000E+00  0.00000E+00  0.00000E+00    0.27680E+02  0.15948E+02 -0.43628E+02  0.48559E+01  0.39364E+01 -0.79442E+01      982.00
  0.68729E+00  0.68639E+02    0.36250E+00  0.36250E+00 -0.72500E+00  0.00000E+00  0.00000E+00  0.00000E+00    0.27853E+02  0.15878E+02 -0.43730E+02  0.48574E+01  0.38922E+01 -0.78477E+01      982.00
  0.71118E+00  0.68769E+02    0.37500E+00  0.37500E+00 -0.75000E+00  0.00000E+00  0.00000E+00  0.00000E+00    0.28010E+02  0.15818E+02 -0.43827E+02  0.48623E+01  0.38452E+01 -0.77558E+01      982.00
  0.73508E+00  0.68889E+02    0.38750E+00  0.38750E+00 -0.77500E+00  0.00000E+00  0.00000E+00  0.00000E+00    0.28160E+02  0.15757E+02 -0.43918E+02  0.48675E+01  0.37986E+01 -0.76635E+01      982.00
  0.75898E+00  0.69000E+02    0.40000E+00  0.40000E+00 -0.80000E+00  0.00000E+00  0.00000E+00  0.00000E+00    0.28305E+02  0.15696E+02 -0.44002E+02  0.48725E+01  0.37528E+01 -0.75709E+01      982.00
  0.78290E+00  0.69105E+02    0.41250E+00  0.41250E+00 -0.82500E+00  0.00000E+00  0.00000E+00  0.00000E+00    0.28448E+02  0.15632E+02 -0.44080E+02  0.48772E+01  0.37108E+01 -0.74784E+01      982.00
  0.80682E+00  0.69202E+02    0.42500E+00  0.42500E+00 -0.85000E+00  0.00000E+00  0.00000E+00  0.00000E+00    0.28601E+02  0.15553E+02 -0.44154E+02  0.48792E+01  0.36648E+01 -0.73705E+01      982.00
  0.83074E+00  0.69291E+02    0.43750E+00  0.43750E+00 -0.87500E+00  0.00000E+00  0.00000E+00  0.00000E+00    0.28731E+02  0.15490E+02 -0.44221E+02  0.48827E+01  0.36214E+01 -0.72787E+01      982.00
  0.85468E+00  0.69367E+02    0.45000E+00  0.45000E+00 -0.90000E+00  0.00000E+00  0.00000E+00  0.00000E+00    0.28838E+02  0.15439E+02 -0.44277E+02  0.48845E+01  0.35882E+01 -0.72110E+01      982.00
  0.87861E+00  0.69389E+02    0.46250E+00  0.46250E+00 -0.92500E+00  0.00000E+00  0.00000E+00  0.00000E+00    0.28939E+02  0.15370E+02 -0.44309E+02  0.48728E+01  0.35100E+01 -0.70973E+01      982.00
  0.90256E+00  0.69406E+02    0.47500E+00  0.47500E+00 -0.95000E+00  0.00000E+00  0.00000E+00  0.00000E+00    0.29024E+02  0.15309E+02 -0.44333E+02  0.48606E+01  0.34523E+01 -0.70074E+01      982.00
  0.92651E+00  0.69419E+02    0.48750E+00  0.48750E+00 -0.97500E+00  0.00000E+00  0.00000E+00  0.00000E+00    0.29116E+02  0.15237E+02 -0.44353E+02  0.48441E+01  0.33975E+01 -0.69160E+01      982.00
  0.95047E+00  0.69434E+02    0.50000E+00  0.50000E+00 -0.10000E+01  0.00000E+00  0.00000E+00  0.00000E+00    0.29197E+02  0.15176E+02 -0.44373E+02  0.48310E+01  0.33423E+01 -0.68305E+01      982.00
