          Evm          Svm            E11          E22          E33          E23          E13          E12         SDEV11       SDEV22       SDEV33       SDEV23       SDEV13       SDEV12      TEMP
  0.00000E+00  0.61721E+02    0.00000E+00  0.00000E+00  0.00000E+00  0.00000E+00  0.00000E+00  0.00000E+00    0.26800E+02  0.12272E+02 -0.39072E+02 -0.71348E+00 -0.32899E+01 -0.77934E+01      982.00
  0.23739E-01  0.61968E+02    0.12500E-01  0.12500E-01 -0.25000E-01  0.00000E+00  0.00000E+00  0.00000E+00    0.26804E+02  0.12411E+02 -0.39216E+02 -0.87083E+00 -0.32968E+01 -0.79498E+01      982.00
  0.47471E-01  0.62360E+02    0.25000E-01  0.25000E-01 -0.50000E-01  0.00000E+00  0.00000E+00  0.00000E+00    0.26852E+02  0.12598E+02 -0.39449E+02 -0.99371E+00 -0.33762E+01 -0.81173E+01      982.00
  0.71193E-01  0.62827E+02    0.37500E-01  0.37500E-01 -0.75000E-01  0.00000E+00  0.00000E+00  0.00000E+00    0.26870E+02  0.12878E+02 -0.39748E+02 -0.11602E+01 -0.34934E+01 -0.82664E+01      982.00
  0.94918E-01  0.63158E+02    0.50000E-01  0.50000E-01 -0.10000E+00  0.00000E+00  0.00000E+00  0.00000E+00    0.26746E+02  0.13254E+02 -0.40000E+02 -0.13842E+01 -0.35880E+01 -0.83260E+01      982.00
  0.11867E+00  0.63346E+02    0.62500E-01  0.62500E-01 -0.12500E+00  0.00000E+00  0.00000E+00  0.00000E+00    0.26555E+02  0.13621E+02 -0.40175E+02 -0.15468E+01 -0.37322E+01 -0.82998E+01      982.00
  0.14245E+00  0.63610E+02    0.75000E-01  0.75000E-01 -0.15000E+00  0.00000E+00  0.00000E+00  0.00000E+00    0.26496E+02  0.13876E+02 -0.40373E+02 -0.15553E+01 -0.39743E+01 -0.82607E+01      982.00
  0.16625E+00  0.63928E+02    0.87500E-01  0.87500E-01 -0.17500E+00  0.00000E+00  0.00000E+00  0.00000E+00    0.26572E+02  0.14014E+02 -0.40586E+02 -0.14432E+01 -0.42364E+01 -0.82105E+01      982.00
  0.19006E+00  0.64305E+02    0.10000E+00  0.10000E+00 -0.20000E+00  0.00000E+00  0.00000E+00  0.00000E+00    0.26714E+02  0.14111E+02 -0.40825E+02 -0.13201E+01 -0.44734E+01 -0.81786E+01      982.00
  0.21387E+00  0.64730E+02    0.11250E+00  0.11250E+00 -0.22500E+00  0.00000E+00  0.00000E+00  0.00000E+00    0.26914E+02  0.14173E+02 -0.41087E+02 -0.12026E+01 -0.46659E+01 -0.81681E+01      982.00
  0.23767E+00  0.65180E+02    0.12500E+00  0.12500E+00 -0.25000E+00  0.00000E+00  0.00000E+00  0.00000E+00    0.27153E+02  0.14210E+02 -0.41362E+02 -0.10989E+01 -0.48090E+01 -0.81738E+01      982.00
  0.26147E+00  0.65642E+02    0.13750E+00  0.13750E+00 -0.27500E+00  0.00000E+00  0.00000E+00  0.00000E+00    0.27398E+02  0.14247E+02 -0.41646E+02 -0.10238E+01 -0.49077E+01 -0.81948E+01      982.00
  0.28526E+00  0.66104E+02    0.15000E+00  0.15000E+00 -0.30000E+00  0.00000E+00  0.00000E+00  0.00000E+00    0.27655E+02  0.14274E+02 -0.41929E+02 -0.96370E+00 -0.49703E+01 -0.82236E+01      982.00
  0.30904E+00  0.66562E+02    0.16250E+00  0.16250E+00 -0.32500E+00  0.00000E+00  0.00000E+00  0.00000E+00    0.27901E+02  0.14314E+02 -0.42215E+02 -0.92942E+00 -0.50033E+01 -0.82589E+01      982.00
  0.33283E+00  0.67003E+02    0.17500E+00  0.17500E+00 -0.35000E+00  0.00000E+00  0.00000E+00  0.00000E+00    0.28145E+02  0.14346E+02 -0.42491E+02 -0.90381E+00 -0.50152E+01 -0.82941E+01      982.00
  0.35661E+00  0.67431E+02    0.18750E+00  0.18750E+00 -0.37500E+00  0.00000E+00  0.00000E+00  0.00000E+00    0.28379E+02  0.14382E+02 -0.42761E+02 -0.89047E+00 -0.50103E+01 -0.83277E+01      982.00
  0.38039E+00  0.67831E+02    0.20000E+00  0.20000E+00 -0.40000E+00  0.00000E+00  0.00000E+00  0.00000E+00    0.28587E+02  0.14434E+02 -0.43021E+02 -0.89347E+00 -0.49892E+01 -0.83550E+01      982.00
  0.40417E+00  0.68215E+02    0.21250E+00  0.21250E+00 -0.42500E+00  0.00000E+00  0.00000E+00  0.00000E+00    0.28792E+02  0.14481E+02 -0.43272E+02 -0.89874E+00 -0.49580E+01 -0.83761E+01      982.00
  0.42796E+00  0.68579E+02    0.22500E+00  0.22500E+00 -0.45000E+00  0.00000E+00  0.00000E+00  0.00000E+00    0.28984E+02  0.14531E+02 -0.43515E+02 -0.90962E+00 -0.49138E+01 -0.83880E+01      982.00
  0.45176E+00  0.68885E+02    0.23750E+00  0.23750E+00 -0.47500E+00  0.00000E+00  0.00000E+00  0.00000E+00    0.29131E+02  0.14591E+02 -0.43722E+02 -0.92828E+00 -0.48752E+01 -0.83972E+01      982.00
  0.47556E+00  0.69216E+02    0.25000E+00  0.25000E+00 -0.50000E+00  0.00000E+00  0.00000E+00  0.00000E+00    0.29299E+02  0.14653E+02 -0.43952E+02 -0.95045E+00 -0.48123E+01 -0.83911E+01      982.00
  0.49937E+00  0.69485E+02    0.26250E+00  0.26250E+00 -0.52500E+00  0.00000E+00  0.00000E+00  0.00000E+00    0.29427E+02  0.14716E+02 -0.44142E+02 -0.97155E+00 -0.47589E+01 -0.83851E+01      982.00
  0.52319E+00  0.69730E+02    0.27500E+00  0.27500E+00 -0.55000E+00  0.00000E+00  0.00000E+00  0.00000E+00    0.29538E+02  0.14780E+02 -0.44318E+02 -0.99216E+00 -0.47041E+01 -0.83736E+01      982.00
  0.54703E+00  0.69934E+02    0.28750E+00  0.28750E+00 -0.57500E+00  0.00000E+00  0.00000E+00  0.00000E+00    0.29624E+02  0.14841E+02 -0.44464E+02 -0.10054E+01 -0.46674E+01 -0.83684E+01      982.00
  0.57087E+00  0.70146E+02    0.30000E+00  0.30000E+00 -0.60000E+00  0.00000E+00  0.00000E+00  0.00000E+00    0.29719E+02  0.14901E+02 -0.44620E+02 -0.10228E+01 -0.46134E+01 -0.83506E+01      982.00
  0.59472E+00  0.70340E+02    0.31250E+00  0.31250E+00 -0.62500E+00  0.00000E+00  0.00000E+00  0.00000E+00    0.29805E+02  0.14960E+02 -0.44765E+02 -0.10391E+01 -0.45588E+01 -0.83291E+01      982.00
  0.61859E+00  0.70518E+02    0.32500E+00  0.32500E+00 -0.65000E+00  0.00000E+00  0.00000E+00  0.00000E+00    0.29882E+02  0.15018E+02 -0.44900E+02 -0.10542E+01 -0.45046E+01 -0.83050E+01      982.00
  0.64247E+00  0.70681E+02    0.33750E+00  0.33750E+00 -0.67500E+00  0.00000E+00  0.00000E+00  0.00000E+00    0.29951E+02  0.15074E+02 -0.45025E+02 -0.10681E+01 -0.44509E+01 -0.82785E+01      982.00
  0.66635E+00  0.70831E+02    0.35000E+00  0.35000E+00 -0.70000E+00  0.00000E+00  0.00000E+00  0.00000E+00    0.30014E+02  0.15128E+02 -0.45142E+02 -0.10807E+01 -0.43981E+01 -0.82503E+01      982.00
  0.69025E+00  0.70968E+02    0.36250E+00  0.36250E+00 -0.72500E+00  0.00000E+00  0.00000E+00  0.00000E+00    0.30070E+02  0.15181E+02 -0.45251E+02 -0.10922E+01 -0.43462E+01 -0.82207E+01      982.00
  0.71416E+00  0.71094E+02    0.37500E+00  0.37500E+00 -0.75000E+00  0.00000E+00  0.00000E+00  0.00000E+00    0.30121E+02  0.15232E+02 -0.45352E+02 -0.11026E+01 -0.42955E+01 -0.81901E+01      982.00
  0.73809E+00  0.71210E+02    0.38750E+00  0.38750E+00 -0.77500E+00  0.00000E+00  0.00000E+00  0.00000E+00    0.30166E+02  0.15280E+02 -0.45446E+02 -0.11128E+01 -0.42483E+01 -0.81595E+01      982.00
  0.76202E+00  0.71303E+02    0.40000E+00  0.40000E+00 -0.80000E+00  0.00000E+00  0.00000E+00  0.00000E+00    0.30200E+02  0.15321E+02 -0.45521E+02 -0.11209E+01 -0.42077E+01 -0.81398E+01      982.00
  0.78596E+00  0.71403E+02    0.41250E+00  0.41250E+00 -0.82500E+00  0.00000E+00  0.00000E+00  0.00000E+00    0.30238E+02  0.15367E+02 -0.45605E+02 -0.11283E+01 -0.41607E+01 -0.81077E+01      982.00
  0.80991E+00  0.71495E+02    0.42500E+00  0.42500E+00 -0.85000E+00  0.00000E+00  0.00000E+00  0.00000E+00    0.30272E+02  0.15410E+02 -0.45683E+02 -0.11349E+01 -0.41150E+01 -0.80758E+01      982.00
  0.83387E+00  0.71513E+02    0.43750E+00  0.43750E+00 -0.87500E+00  0.00000E+00  0.00000E+00  0.00000E+00    0.30267E+02  0.15450E+02 -0.45717E+02 -0.11391E+01 -0.40516E+01 -0.80342E+01      982.00
  0.85784E+00  0.71538E+02    0.45000E+00  0.45000E+00 -0.90000E+00  0.00000E+00  0.00000E+00  0.00000E+00    0.30266E+02  0.15487E+02 -0.45754E+02 -0.11350E+01 -0.40039E+01 -0.79946E+01      982.00
  0.88183E+00  0.71540E+02    0.46250E+00  0.46250E+00 -0.92500E+00  0.00000E+00  0.00000E+00  0.00000E+00    0.30257E+02  0.15520E+02 -0.45777E+02 -0.11393E+01 -0.39408E+01 -0.79537E+01      982.00
  0.90582E+00  0.71562E+02    0.47500E+00  0.47500E+00 -0.95000E+00  0.00000E+00  0.00000E+00  0.00000E+00    0.30255E+02  0.15554E+02 -0.45809E+02 -0.11355E+01 -0.38978E+01 -0.79175E+01      982.00
  0.92983E+00  0.71565E+02    0.48750E+00  0.48750E+00 -0.97500E+00  0.00000E+00  0.00000E+00  0.00000E+00    0.30245E+02  0.15585E+02 -0.45830E+02 -0.11389E+01 -0.38397E+01 -0.78819E+01      982.00
  0.95384E+00  0.71585E+02    0.50000E+00  0.50000E+00 -0.10000E+01  0.00000E+00  0.00000E+00  0.00000E+00    0.30243E+02  0.15616E+02 -0.45859E+02 -0.11353E+01 -0.38009E+01 -0.78492E+01      982.00
