          Evm          Svm            E11          E22          E33          E23          E13          E12         SDEV11       SDEV22       SDEV33       SDEV23       SDEV13       SDEV12      TEMP
  0.00000E+00  0.60034E+02    0.00000E+00  0.00000E+00  0.00000E+00  0.00000E+00  0.00000E+00  0.00000E+00    0.22259E+02  0.14459E+02 -0.36718E+02 -0.28805E+01  0.85799E+00  0.12882E+02      982.00
  0.22936E-01  0.60166E+02    0.12500E-01  0.12500E-01 -0.25000E-01  0.00000E+00  0.00000E+00  0.00000E+00    0.22101E+02  0.14645E+02 -0.36746E+02 -0.28827E+01  0.87306E+00  0.13076E+02      982.00
  0.45839E-01  0.60328E+02    0.25000E-01  0.25000E-01 -0.50000E-01  0.00000E+00  0.00000E+00  0.00000E+00    0.22008E+02  0.14788E+02 -0.36796E+02 -0.28754E+01  0.90775E+00  0.13249E+02      982.00
  0.68711E-01  0.60507E+02    0.37500E-01  0.37500E-01 -0.75000E-01  0.00000E+00  0.00000E+00  0.00000E+00    0.21942E+02  0.14930E+02 -0.36872E+02 -0.28645E+01  0.97452E+00  0.13388E+02      982.00
  0.91564E-01  0.60685E+02    0.50000E-01  0.50000E-01 -0.10000E+00  0.00000E+00  0.00000E+00  0.00000E+00    0.21923E+02  0.15040E+02 -0.36964E+02 -0.28467E+01  0.10701E+01  0.13480E+02      982.00
  0.11441E+00  0.60835E+02    0.62500E-01  0.62500E-01 -0.12500E+00  0.00000E+00  0.00000E+00  0.00000E+00    0.21973E+02  0.15085E+02 -0.37058E+02 -0.28149E+01  0.11917E+01  0.13507E+02      982.00
  0.13725E+00  0.60957E+02    0.75000E-01  0.75000E-01 -0.15000E+00  0.00000E+00  0.00000E+00  0.00000E+00    0.22100E+02  0.15056E+02 -0.37155E+02 -0.27560E+01  0.13261E+01  0.13470E+02      982.00
  0.16011E+00  0.61093E+02    0.87500E-01  0.87500E-01 -0.17500E+00  0.00000E+00  0.00000E+00  0.00000E+00    0.22276E+02  0.14987E+02 -0.37263E+02 -0.26649E+01  0.14528E+01  0.13425E+02      982.00
  0.18298E+00  0.61228E+02    0.10000E+00  0.10000E+00 -0.20000E+00  0.00000E+00  0.00000E+00  0.00000E+00    0.22480E+02  0.14888E+02 -0.37368E+02 -0.25342E+01  0.15687E+01  0.13382E+02      982.00
  0.20587E+00  0.61394E+02    0.11250E+00  0.11250E+00 -0.22500E+00  0.00000E+00  0.00000E+00  0.00000E+00    0.22701E+02  0.14780E+02 -0.37481E+02 -0.23833E+01  0.16607E+01  0.13368E+02      982.00
  0.22876E+00  0.61583E+02    0.12500E+00  0.12500E+00 -0.25000E+00  0.00000E+00  0.00000E+00  0.00000E+00    0.22934E+02  0.14663E+02 -0.37597E+02 -0.22295E+01  0.17271E+01  0.13378E+02      982.00
  0.25165E+00  0.61798E+02    0.13750E+00  0.13750E+00 -0.27500E+00  0.00000E+00  0.00000E+00  0.00000E+00    0.23163E+02  0.14553E+02 -0.37716E+02 -0.20854E+01  0.17694E+01  0.13420E+02      982.00
  0.27454E+00  0.62031E+02    0.15000E+00  0.15000E+00 -0.30000E+00  0.00000E+00  0.00000E+00  0.00000E+00    0.23380E+02  0.14455E+02 -0.37835E+02 -0.19574E+01  0.17880E+01  0.13492E+02      982.00
  0.29741E+00  0.62278E+02    0.16250E+00  0.16250E+00 -0.32500E+00  0.00000E+00  0.00000E+00  0.00000E+00    0.23587E+02  0.14368E+02 -0.37955E+02 -0.18497E+01  0.17874E+01  0.13585E+02      982.00
  0.32027E+00  0.62533E+02    0.17500E+00  0.17500E+00 -0.35000E+00  0.00000E+00  0.00000E+00  0.00000E+00    0.23772E+02  0.14302E+02 -0.38073E+02 -0.17606E+01  0.17744E+01  0.13697E+02      982.00
  0.34310E+00  0.62783E+02    0.18750E+00  0.18750E+00 -0.37500E+00  0.00000E+00  0.00000E+00  0.00000E+00    0.23937E+02  0.14250E+02 -0.38187E+02 -0.16901E+01  0.17498E+01  0.13815E+02      982.00
  0.36591E+00  0.63026E+02    0.20000E+00  0.20000E+00 -0.40000E+00  0.00000E+00  0.00000E+00  0.00000E+00    0.24083E+02  0.14208E+02 -0.38291E+02 -0.16336E+01  0.17149E+01  0.13945E+02      982.00
  0.38869E+00  0.63276E+02    0.21250E+00  0.21250E+00 -0.42500E+00  0.00000E+00  0.00000E+00  0.00000E+00    0.24215E+02  0.14184E+02 -0.38399E+02 -0.15895E+01  0.16744E+01  0.14081E+02      982.00
  0.41145E+00  0.63533E+02    0.22500E+00  0.22500E+00 -0.45000E+00  0.00000E+00  0.00000E+00  0.00000E+00    0.24335E+02  0.14174E+02 -0.38510E+02 -0.15526E+01  0.16294E+01  0.14225E+02      982.00
  0.43418E+00  0.63736E+02    0.23750E+00  0.23750E+00 -0.47500E+00  0.00000E+00  0.00000E+00  0.00000E+00    0.24421E+02  0.14177E+02 -0.38599E+02 -0.15286E+01  0.15934E+01  0.14339E+02      982.00
  0.45689E+00  0.63968E+02    0.25000E+00  0.25000E+00 -0.50000E+00  0.00000E+00  0.00000E+00  0.00000E+00    0.24512E+02  0.14191E+02 -0.38703E+02 -0.15068E+01  0.15559E+01  0.14464E+02      982.00
  0.47958E+00  0.64195E+02    0.26250E+00  0.26250E+00 -0.52500E+00  0.00000E+00  0.00000E+00  0.00000E+00    0.24595E+02  0.14204E+02 -0.38799E+02 -0.14863E+01  0.15088E+01  0.14601E+02      982.00
  0.50224E+00  0.64398E+02    0.27500E+00  0.27500E+00 -0.55000E+00  0.00000E+00  0.00000E+00  0.00000E+00    0.24667E+02  0.14226E+02 -0.38892E+02 -0.14704E+01  0.14729E+01  0.14708E+02      982.00
  0.52489E+00  0.64589E+02    0.28750E+00  0.28750E+00 -0.57500E+00  0.00000E+00  0.00000E+00  0.00000E+00    0.24730E+02  0.14250E+02 -0.38980E+02 -0.14548E+01  0.14382E+01  0.14810E+02      982.00
  0.54752E+00  0.64772E+02    0.30000E+00  0.30000E+00 -0.60000E+00  0.00000E+00  0.00000E+00  0.00000E+00    0.24790E+02  0.14277E+02 -0.39068E+02 -0.14385E+01  0.14045E+01  0.14903E+02      982.00
  0.57014E+00  0.64947E+02    0.31250E+00  0.31250E+00 -0.62500E+00  0.00000E+00  0.00000E+00  0.00000E+00    0.24848E+02  0.14306E+02 -0.39154E+02 -0.14224E+01  0.13717E+01  0.14985E+02      982.00
  0.59274E+00  0.65104E+02    0.32500E+00  0.32500E+00 -0.65000E+00  0.00000E+00  0.00000E+00  0.00000E+00    0.24898E+02  0.14334E+02 -0.39232E+02 -0.14043E+01  0.13399E+01  0.15060E+02      982.00
  0.61534E+00  0.65256E+02    0.33750E+00  0.33750E+00 -0.67500E+00  0.00000E+00  0.00000E+00  0.00000E+00    0.24947E+02  0.14363E+02 -0.39309E+02 -0.13847E+01  0.13077E+01  0.15129E+02      982.00
  0.63793E+00  0.65399E+02    0.35000E+00  0.35000E+00 -0.70000E+00  0.00000E+00  0.00000E+00  0.00000E+00    0.24993E+02  0.14392E+02 -0.39386E+02 -0.13635E+01  0.12763E+01  0.15187E+02      982.00
  0.66052E+00  0.65535E+02    0.36250E+00  0.36250E+00 -0.72500E+00  0.00000E+00  0.00000E+00  0.00000E+00    0.25037E+02  0.14422E+02 -0.39460E+02 -0.13400E+01  0.12449E+01  0.15241E+02      982.00
  0.68310E+00  0.65679E+02    0.37500E+00  0.37500E+00 -0.75000E+00  0.00000E+00  0.00000E+00  0.00000E+00    0.25081E+02  0.14455E+02 -0.39537E+02 -0.13078E+01  0.12024E+01  0.15302E+02      982.00
  0.70567E+00  0.65782E+02    0.38750E+00  0.38750E+00 -0.77500E+00  0.00000E+00  0.00000E+00  0.00000E+00    0.25120E+02  0.14484E+02 -0.39603E+02 -0.12877E+01  0.11815E+01  0.15323E+02      982.00
  0.72825E+00  0.65893E+02    0.40000E+00  0.40000E+00 -0.80000E+00  0.00000E+00  0.00000E+00  0.00000E+00    0.25157E+02  0.14513E+02 -0.39669E+02 -0.12586E+01  0.11498E+01  0.15356E+02      982.00
  0.75082E+00  0.66000E+02    0.41250E+00  0.41250E+00 -0.82500E+00  0.00000E+00  0.00000E+00  0.00000E+00    0.25194E+02  0.14544E+02 -0.39738E+02 -0.12284E+01  0.11176E+01  0.15381E+02      982.00
  0.77340E+00  0.66100E+02    0.42500E+00  0.42500E+00 -0.85000E+00  0.00000E+00  0.00000E+00  0.00000E+00    0.25231E+02  0.14572E+02 -0.39803E+02 -0.11974E+01  0.10851E+01  0.15401E+02      982.00
  0.79598E+00  0.66199E+02    0.43750E+00  0.43750E+00 -0.87500E+00  0.00000E+00  0.00000E+00  0.00000E+00    0.25268E+02  0.14602E+02 -0.39870E+02 -0.11654E+01  0.10525E+01  0.15416E+02      982.00
  0.81857E+00  0.66287E+02    0.45000E+00  0.45000E+00 -0.90000E+00  0.00000E+00  0.00000E+00  0.00000E+00    0.25302E+02  0.14631E+02 -0.39933E+02 -0.11345E+01  0.10206E+01  0.15423E+02      982.00
  0.84116E+00  0.66371E+02    0.46250E+00  0.46250E+00 -0.92500E+00  0.00000E+00  0.00000E+00  0.00000E+00    0.25337E+02  0.14658E+02 -0.39995E+02 -0.11049E+01  0.99015E+00  0.15425E+02      982.00
  0.86376E+00  0.66456E+02    0.47500E+00  0.47500E+00 -0.95000E+00  0.00000E+00  0.00000E+00  0.00000E+00    0.25377E+02  0.14683E+02 -0.40060E+02 -0.10786E+01  0.96114E+00  0.15423E+02      982.00
  0.88636E+00  0.66534E+02    0.48750E+00  0.48750E+00 -0.97500E+00  0.00000E+00  0.00000E+00  0.00000E+00    0.25413E+02  0.14709E+02 -0.40122E+02 -0.10565E+01  0.93545E+00  0.15415E+02      982.00
  0.90897E+00  0.66610E+02    0.50000E+00  0.50000E+00 -0.10000E+01  0.00000E+00  0.00000E+00  0.00000E+00    0.25455E+02  0.14731E+02 -0.40186E+02 -0.10419E+01  0.91476E+00  0.15399E+02      982.00
