          Evm          Svm            E11          E22          E33          E23          E13          E12         SDEV11       SDEV22       SDEV33       SDEV23       SDEV13       SDEV12      TEMP
  0.00000E+00  0.54722E+02    0.00000E+00  0.00000E+00  0.00000E+00  0.00000E+00  0.00000E+00  0.00000E+00    0.14289E+02  0.19889E+02 -0.34178E+02 -0.40345E+01  0.15068E+01  0.97829E+01      982.00
  0.23421E-01  0.54699E+02    0.12500E-01  0.12500E-01 -0.25000E-01  0.00000E+00  0.00000E+00  0.00000E+00    0.14683E+02  0.19466E+02 -0.34148E+02 -0.37035E+01  0.17017E+01  0.10020E+02      982.00
  0.46832E-01  0.54795E+02    0.25000E-01  0.25000E-01 -0.50000E-01  0.00000E+00  0.00000E+00  0.00000E+00    0.15166E+02  0.19008E+02 -0.34174E+02 -0.33390E+01  0.19030E+01  0.10319E+02      982.00
  0.70220E-01  0.54969E+02    0.37500E-01  0.37500E-01 -0.75000E-01  0.00000E+00  0.00000E+00  0.00000E+00    0.15659E+02  0.18568E+02 -0.34227E+02 -0.29902E+01  0.20808E+01  0.10641E+02      982.00
  0.93569E-01  0.55228E+02    0.50000E-01  0.50000E-01 -0.10000E+00  0.00000E+00  0.00000E+00  0.00000E+00    0.16101E+02  0.18212E+02 -0.34313E+02 -0.26861E+01  0.22207E+01  0.10974E+02      982.00
  0.11687E+00  0.55558E+02    0.62500E-01  0.62500E-01 -0.12500E+00  0.00000E+00  0.00000E+00  0.00000E+00    0.16463E+02  0.17962E+02 -0.34426E+02 -0.24255E+01  0.23243E+01  0.11322E+02      982.00
  0.14010E+00  0.55972E+02    0.75000E-01  0.75000E-01 -0.15000E+00  0.00000E+00  0.00000E+00  0.00000E+00    0.16763E+02  0.17817E+02 -0.34580E+02 -0.22010E+01  0.24001E+01  0.11687E+02      982.00
  0.16327E+00  0.56444E+02    0.87500E-01  0.87500E-01 -0.17500E+00  0.00000E+00  0.00000E+00  0.00000E+00    0.17003E+02  0.17762E+02 -0.34765E+02 -0.20095E+01  0.24507E+01  0.12056E+02      982.00
  0.18637E+00  0.56946E+02    0.10000E+00  0.10000E+00 -0.20000E+00  0.00000E+00  0.00000E+00  0.00000E+00    0.17199E+02  0.17768E+02 -0.34967E+02 -0.18443E+01  0.24810E+01  0.12421E+02      982.00
  0.20940E+00  0.57456E+02    0.11250E+00  0.11250E+00 -0.22500E+00  0.00000E+00  0.00000E+00  0.00000E+00    0.17361E+02  0.17814E+02 -0.35175E+02 -0.17015E+01  0.24945E+01  0.12777E+02      982.00
  0.23235E+00  0.57976E+02    0.12500E+00  0.12500E+00 -0.25000E+00  0.00000E+00  0.00000E+00  0.00000E+00    0.17505E+02  0.17890E+02 -0.35395E+02 -0.15798E+01  0.24930E+01  0.13118E+02      982.00
  0.25525E+00  0.58483E+02    0.13750E+00  0.13750E+00 -0.27500E+00  0.00000E+00  0.00000E+00  0.00000E+00    0.17630E+02  0.17982E+02 -0.35612E+02 -0.14946E+01  0.24763E+01  0.13437E+02      982.00
  0.27808E+00  0.58970E+02    0.15000E+00  0.15000E+00 -0.30000E+00  0.00000E+00  0.00000E+00  0.00000E+00    0.17744E+02  0.18078E+02 -0.35821E+02 -0.14309E+01  0.24490E+01  0.13737E+02      982.00
  0.30086E+00  0.59406E+02    0.16250E+00  0.16250E+00 -0.32500E+00  0.00000E+00  0.00000E+00  0.00000E+00    0.17843E+02  0.18165E+02 -0.36009E+02 -0.13773E+01  0.24134E+01  0.14005E+02      982.00
  0.32359E+00  0.59846E+02    0.17500E+00  0.17500E+00 -0.35000E+00  0.00000E+00  0.00000E+00  0.00000E+00    0.17944E+02  0.18256E+02 -0.36200E+02 -0.13522E+01  0.23690E+01  0.14267E+02      982.00
  0.34627E+00  0.60269E+02    0.18750E+00  0.18750E+00 -0.37500E+00  0.00000E+00  0.00000E+00  0.00000E+00    0.18043E+02  0.18342E+02 -0.36386E+02 -0.13417E+01  0.23179E+01  0.14514E+02      982.00
  0.36891E+00  0.60666E+02    0.20000E+00  0.20000E+00 -0.40000E+00  0.00000E+00  0.00000E+00  0.00000E+00    0.18138E+02  0.18420E+02 -0.36558E+02 -0.13446E+01  0.22615E+01  0.14746E+02      982.00
  0.39151E+00  0.61033E+02    0.21250E+00  0.21250E+00 -0.42500E+00  0.00000E+00  0.00000E+00  0.00000E+00    0.18226E+02  0.18489E+02 -0.36715E+02 -0.13592E+01  0.22003E+01  0.14966E+02      982.00
  0.41407E+00  0.61416E+02    0.22500E+00  0.22500E+00 -0.45000E+00  0.00000E+00  0.00000E+00  0.00000E+00    0.18321E+02  0.18553E+02 -0.36874E+02 -0.13647E+01  0.21205E+01  0.15205E+02      982.00
  0.43659E+00  0.61740E+02    0.23750E+00  0.23750E+00 -0.47500E+00  0.00000E+00  0.00000E+00  0.00000E+00    0.18403E+02  0.18607E+02 -0.37010E+02 -0.14001E+01  0.20507E+01  0.15400E+02      982.00
  0.45907E+00  0.62050E+02    0.25000E+00  0.25000E+00 -0.50000E+00  0.00000E+00  0.00000E+00  0.00000E+00    0.18484E+02  0.18654E+02 -0.37138E+02 -0.14401E+01  0.19808E+01  0.15588E+02      982.00
  0.48151E+00  0.62338E+02    0.26250E+00  0.26250E+00 -0.52500E+00  0.00000E+00  0.00000E+00  0.00000E+00    0.18561E+02  0.18693E+02 -0.37254E+02 -0.14831E+01  0.19118E+01  0.15766E+02      982.00
  0.50392E+00  0.62612E+02    0.27500E+00  0.27500E+00 -0.55000E+00  0.00000E+00  0.00000E+00  0.00000E+00    0.18637E+02  0.18725E+02 -0.37362E+02 -0.15302E+01  0.18445E+01  0.15940E+02      982.00
  0.52630E+00  0.62855E+02    0.28750E+00  0.28750E+00 -0.57500E+00  0.00000E+00  0.00000E+00  0.00000E+00    0.18705E+02  0.18752E+02 -0.37457E+02 -0.15762E+01  0.17958E+01  0.16093E+02      982.00
  0.54864E+00  0.63101E+02    0.30000E+00  0.30000E+00 -0.60000E+00  0.00000E+00  0.00000E+00  0.00000E+00    0.18778E+02  0.18770E+02 -0.37548E+02 -0.16210E+01  0.17375E+01  0.16254E+02      982.00
  0.57096E+00  0.63322E+02    0.31250E+00  0.31250E+00 -0.62500E+00  0.00000E+00  0.00000E+00  0.00000E+00    0.18847E+02  0.18779E+02 -0.37626E+02 -0.16633E+01  0.16847E+01  0.16408E+02      982.00
  0.59324E+00  0.63546E+02    0.32500E+00  0.32500E+00 -0.65000E+00  0.00000E+00  0.00000E+00  0.00000E+00    0.18916E+02  0.18789E+02 -0.37705E+02 -0.17067E+01  0.16463E+01  0.16559E+02      982.00
  0.61549E+00  0.63749E+02    0.33750E+00  0.33750E+00 -0.67500E+00  0.00000E+00  0.00000E+00  0.00000E+00    0.18986E+02  0.18786E+02 -0.37772E+02 -0.17410E+01  0.16077E+01  0.16702E+02      982.00
  0.63771E+00  0.63935E+02    0.35000E+00  0.35000E+00 -0.70000E+00  0.00000E+00  0.00000E+00  0.00000E+00    0.19055E+02  0.18776E+02 -0.37831E+02 -0.17716E+01  0.15770E+01  0.16838E+02      982.00
  0.65990E+00  0.64111E+02    0.36250E+00  0.36250E+00 -0.72500E+00  0.00000E+00  0.00000E+00  0.00000E+00    0.19126E+02  0.18761E+02 -0.37887E+02 -0.17977E+01  0.15533E+01  0.16965E+02      982.00
  0.68206E+00  0.64252E+02    0.37500E+00  0.37500E+00 -0.75000E+00  0.00000E+00  0.00000E+00  0.00000E+00    0.19195E+02  0.18736E+02 -0.37931E+02 -0.18165E+01  0.15342E+01  0.17069E+02      982.00
  0.70420E+00  0.64401E+02    0.38750E+00  0.38750E+00 -0.77500E+00  0.00000E+00  0.00000E+00  0.00000E+00    0.19266E+02  0.18708E+02 -0.37975E+02 -0.18347E+01  0.15248E+01  0.17181E+02      982.00
  0.72631E+00  0.64550E+02    0.40000E+00  0.40000E+00 -0.80000E+00  0.00000E+00  0.00000E+00  0.00000E+00    0.19363E+02  0.18656E+02 -0.38018E+02 -0.18482E+01  0.15144E+01  0.17292E+02      982.00
  0.74840E+00  0.64680E+02    0.41250E+00  0.41250E+00 -0.82500E+00  0.00000E+00  0.00000E+00  0.00000E+00    0.19438E+02  0.18619E+02 -0.38057E+02 -0.18616E+01  0.15159E+01  0.17386E+02      982.00
  0.77046E+00  0.64794E+02    0.42500E+00  0.42500E+00 -0.85000E+00  0.00000E+00  0.00000E+00  0.00000E+00    0.19512E+02  0.18578E+02 -0.38090E+02 -0.18756E+01  0.15202E+01  0.17471E+02      982.00
  0.79251E+00  0.64900E+02    0.43750E+00  0.43750E+00 -0.87500E+00  0.00000E+00  0.00000E+00  0.00000E+00    0.19586E+02  0.18536E+02 -0.38122E+02 -0.18853E+01  0.15265E+01  0.17546E+02      982.00
  0.81453E+00  0.64998E+02    0.45000E+00  0.45000E+00 -0.90000E+00  0.00000E+00  0.00000E+00  0.00000E+00    0.19628E+02  0.18520E+02 -0.38148E+02 -0.18971E+01  0.15326E+01  0.17623E+02      982.00
  0.83654E+00  0.65088E+02    0.46250E+00  0.46250E+00 -0.92500E+00  0.00000E+00  0.00000E+00  0.00000E+00    0.19700E+02  0.18474E+02 -0.38174E+02 -0.19069E+01  0.15378E+01  0.17687E+02      982.00
  0.85854E+00  0.65106E+02    0.47500E+00  0.47500E+00 -0.95000E+00  0.00000E+00  0.00000E+00  0.00000E+00    0.19759E+02  0.18415E+02 -0.38174E+02 -0.19088E+01  0.15404E+01  0.17707E+02      982.00
  0.88052E+00  0.65142E+02    0.48750E+00  0.48750E+00 -0.97500E+00  0.00000E+00  0.00000E+00  0.00000E+00    0.19819E+02  0.18357E+02 -0.38176E+02 -0.19152E+01  0.15422E+01  0.17743E+02      982.00
  0.90250E+00  0.65193E+02    0.50000E+00  0.50000E+00 -0.10000E+01  0.00000E+00  0.00000E+00  0.00000E+00    0.19924E+02  0.18263E+02 -0.38187E+02 -0.19205E+01  0.15430E+01  0.17784E+02      982.00
