          Evm          Svm            E11          E22          E33          E23          E13          E12         SDEV11       SDEV22       SDEV33       SDEV23       SDEV13       SDEV12      TEMP
  0.00000E+00  0.61764E+02    0.00000E+00  0.00000E+00  0.00000E+00  0.00000E+00  0.00000E+00  0.00000E+00    0.17356E+02  0.21306E+02 -0.38662E+02 -0.51965E+01 -0.56308E+01 -0.93764E+01      982.00
  0.23474E-01  0.61690E+02    0.12500E-01  0.12500E-01 -0.25000E-01  0.00000E+00  0.00000E+00  0.00000E+00    0.17453E+02  0.21272E+02 -0.38725E+02 -0.52417E+01 -0.54243E+01 -0.91260E+01      982.00
  0.47014E-01  0.61692E+02    0.25000E-01  0.25000E-01 -0.50000E-01  0.00000E+00  0.00000E+00  0.00000E+00    0.17562E+02  0.21250E+02 -0.38812E+02 -0.52868E+01 -0.52834E+01 -0.89194E+01      982.00
  0.70606E-01  0.61767E+02    0.37500E-01  0.37500E-01 -0.75000E-01  0.00000E+00  0.00000E+00  0.00000E+00    0.17666E+02  0.21259E+02 -0.38925E+02 -0.53297E+01 -0.51812E+01 -0.87657E+01      982.00
  0.94239E-01  0.61897E+02    0.50000E-01  0.50000E-01 -0.10000E+00  0.00000E+00  0.00000E+00  0.00000E+00    0.17764E+02  0.21297E+02 -0.39061E+02 -0.53640E+01 -0.50932E+01 -0.86540E+01      982.00
  0.11790E+00  0.62068E+02    0.62500E-01  0.62500E-01 -0.12500E+00  0.00000E+00  0.00000E+00  0.00000E+00    0.17845E+02  0.21359E+02 -0.39205E+02 -0.53837E+01 -0.50274E+01 -0.86045E+01      982.00
  0.14159E+00  0.62312E+02    0.75000E-01  0.75000E-01 -0.15000E+00  0.00000E+00  0.00000E+00  0.00000E+00    0.17933E+02  0.21459E+02 -0.39393E+02 -0.53884E+01 -0.49647E+01 -0.85806E+01      982.00
  0.16530E+00  0.62579E+02    0.87500E-01  0.87500E-01 -0.17500E+00  0.00000E+00  0.00000E+00  0.00000E+00    0.18013E+02  0.21574E+02 -0.39586E+02 -0.53823E+01 -0.49103E+01 -0.85925E+01      982.00
  0.18902E+00  0.62877E+02    0.10000E+00  0.10000E+00 -0.20000E+00  0.00000E+00  0.00000E+00  0.00000E+00    0.18098E+02  0.21698E+02 -0.39796E+02 -0.53634E+01 -0.48648E+01 -0.86234E+01      982.00
  0.21275E+00  0.63205E+02    0.11250E+00  0.11250E+00 -0.22500E+00  0.00000E+00  0.00000E+00  0.00000E+00    0.18182E+02  0.21839E+02 -0.40021E+02 -0.53407E+01 -0.48206E+01 -0.86739E+01      982.00
  0.23650E+00  0.63553E+02    0.12500E+00  0.12500E+00 -0.25000E+00  0.00000E+00  0.00000E+00  0.00000E+00    0.18269E+02  0.21988E+02 -0.40257E+02 -0.53130E+01 -0.47805E+01 -0.87361E+01      982.00
  0.26025E+00  0.63914E+02    0.13750E+00  0.13750E+00 -0.27500E+00  0.00000E+00  0.00000E+00  0.00000E+00    0.18360E+02  0.22140E+02 -0.40500E+02 -0.52816E+01 -0.47443E+01 -0.88047E+01      982.00
  0.28402E+00  0.64285E+02    0.15000E+00  0.15000E+00 -0.30000E+00  0.00000E+00  0.00000E+00  0.00000E+00    0.18449E+02  0.22297E+02 -0.40747E+02 -0.52489E+01 -0.47091E+01 -0.88809E+01      982.00
  0.30778E+00  0.64651E+02    0.16250E+00  0.16250E+00 -0.32500E+00  0.00000E+00  0.00000E+00  0.00000E+00    0.18550E+02  0.22443E+02 -0.40992E+02 -0.52131E+01 -0.46799E+01 -0.89505E+01      982.00
  0.33156E+00  0.65023E+02    0.17500E+00  0.17500E+00 -0.35000E+00  0.00000E+00  0.00000E+00  0.00000E+00    0.18652E+02  0.22589E+02 -0.41241E+02 -0.51754E+01 -0.46506E+01 -0.90236E+01      982.00
  0.35535E+00  0.65388E+02    0.18750E+00  0.18750E+00 -0.37500E+00  0.00000E+00  0.00000E+00  0.00000E+00    0.18760E+02  0.22727E+02 -0.41487E+02 -0.51373E+01 -0.46244E+01 -0.90913E+01      982.00
  0.37914E+00  0.65717E+02    0.20000E+00  0.20000E+00 -0.40000E+00  0.00000E+00  0.00000E+00  0.00000E+00    0.18867E+02  0.22843E+02 -0.41710E+02 -0.51002E+01 -0.46011E+01 -0.91465E+01      982.00
  0.40294E+00  0.66030E+02    0.21250E+00  0.21250E+00 -0.42500E+00  0.00000E+00  0.00000E+00  0.00000E+00    0.18975E+02  0.22948E+02 -0.41923E+02 -0.50648E+01 -0.45803E+01 -0.91964E+01      982.00
  0.42675E+00  0.66337E+02    0.22500E+00  0.22500E+00 -0.45000E+00  0.00000E+00  0.00000E+00  0.00000E+00    0.19087E+02  0.23045E+02 -0.42132E+02 -0.50337E+01 -0.45628E+01 -0.92441E+01      982.00
  0.45057E+00  0.66611E+02    0.23750E+00  0.23750E+00 -0.47500E+00  0.00000E+00  0.00000E+00  0.00000E+00    0.19192E+02  0.23128E+02 -0.42321E+02 -0.50016E+01 -0.45432E+01 -0.92836E+01      982.00
  0.47439E+00  0.66867E+02    0.25000E+00  0.25000E+00 -0.50000E+00  0.00000E+00  0.00000E+00  0.00000E+00    0.19296E+02  0.23202E+02 -0.42498E+02 -0.49715E+01 -0.45240E+01 -0.93190E+01      982.00
  0.49822E+00  0.67110E+02    0.26250E+00  0.26250E+00 -0.52500E+00  0.00000E+00  0.00000E+00  0.00000E+00    0.19399E+02  0.23267E+02 -0.42666E+02 -0.49462E+01 -0.45072E+01 -0.93515E+01      982.00
  0.52207E+00  0.67330E+02    0.27500E+00  0.27500E+00 -0.55000E+00  0.00000E+00  0.00000E+00  0.00000E+00    0.19496E+02  0.23323E+02 -0.42819E+02 -0.49200E+01 -0.44884E+01 -0.93795E+01      982.00
  0.54591E+00  0.67533E+02    0.28750E+00  0.28750E+00 -0.57500E+00  0.00000E+00  0.00000E+00  0.00000E+00    0.19590E+02  0.23372E+02 -0.42962E+02 -0.48956E+01 -0.44693E+01 -0.94046E+01      982.00
  0.56977E+00  0.67724E+02    0.30000E+00  0.30000E+00 -0.60000E+00  0.00000E+00  0.00000E+00  0.00000E+00    0.19679E+02  0.23416E+02 -0.43095E+02 -0.48736E+01 -0.44507E+01 -0.94283E+01      982.00
  0.59363E+00  0.67896E+02    0.31250E+00  0.31250E+00 -0.62500E+00  0.00000E+00  0.00000E+00  0.00000E+00    0.19765E+02  0.23452E+02 -0.43217E+02 -0.48526E+01 -0.44314E+01 -0.94485E+01      982.00
  0.61750E+00  0.68055E+02    0.32500E+00  0.32500E+00 -0.65000E+00  0.00000E+00  0.00000E+00  0.00000E+00    0.19848E+02  0.23482E+02 -0.43330E+02 -0.48332E+01 -0.44121E+01 -0.94669E+01      982.00
  0.64138E+00  0.68202E+02    0.33750E+00  0.33750E+00 -0.67500E+00  0.00000E+00  0.00000E+00  0.00000E+00    0.19927E+02  0.23507E+02 -0.43434E+02 -0.48154E+01 -0.43927E+01 -0.94837E+01      982.00
  0.66526E+00  0.68336E+02    0.35000E+00  0.35000E+00 -0.70000E+00  0.00000E+00  0.00000E+00  0.00000E+00    0.20002E+02  0.23527E+02 -0.43529E+02 -0.47990E+01 -0.43733E+01 -0.94994E+01      982.00
  0.68915E+00  0.68475E+02    0.36250E+00  0.36250E+00 -0.72500E+00  0.00000E+00  0.00000E+00  0.00000E+00    0.20092E+02  0.23538E+02 -0.43630E+02 -0.47806E+01 -0.43510E+01 -0.95133E+01      982.00
  0.71304E+00  0.68583E+02    0.37500E+00  0.37500E+00 -0.75000E+00  0.00000E+00  0.00000E+00  0.00000E+00    0.20160E+02  0.23548E+02 -0.43708E+02 -0.47655E+01 -0.43301E+01 -0.95260E+01      982.00
  0.73694E+00  0.68685E+02    0.38750E+00  0.38750E+00 -0.77500E+00  0.00000E+00  0.00000E+00  0.00000E+00    0.20226E+02  0.23556E+02 -0.43782E+02 -0.47531E+01 -0.43098E+01 -0.95390E+01      982.00
  0.76084E+00  0.68779E+02    0.40000E+00  0.40000E+00 -0.80000E+00  0.00000E+00  0.00000E+00  0.00000E+00    0.20288E+02  0.23561E+02 -0.43849E+02 -0.47421E+01 -0.42895E+01 -0.95516E+01      982.00
  0.78475E+00  0.68865E+02    0.41250E+00  0.41250E+00 -0.82500E+00  0.00000E+00  0.00000E+00  0.00000E+00    0.20348E+02  0.23563E+02 -0.43911E+02 -0.47323E+01 -0.42693E+01 -0.95638E+01      982.00
  0.80866E+00  0.68944E+02    0.42500E+00  0.42500E+00 -0.85000E+00  0.00000E+00  0.00000E+00  0.00000E+00    0.20406E+02  0.23562E+02 -0.43968E+02 -0.47238E+01 -0.42491E+01 -0.95758E+01      982.00
  0.83258E+00  0.69016E+02    0.43750E+00  0.43750E+00 -0.87500E+00  0.00000E+00  0.00000E+00  0.00000E+00    0.20461E+02  0.23559E+02 -0.44020E+02 -0.47163E+01 -0.42290E+01 -0.95876E+01      982.00
  0.85649E+00  0.69011E+02    0.45000E+00  0.45000E+00 -0.90000E+00  0.00000E+00  0.00000E+00  0.00000E+00    0.20463E+02  0.23558E+02 -0.44021E+02 -0.46964E+01 -0.42042E+01 -0.95912E+01      982.00
  0.88041E+00  0.69013E+02    0.46250E+00  0.46250E+00 -0.92500E+00  0.00000E+00  0.00000E+00  0.00000E+00    0.20497E+02  0.23535E+02 -0.44032E+02 -0.46721E+01 -0.41685E+01 -0.95881E+01      982.00
  0.90434E+00  0.69014E+02    0.47500E+00  0.47500E+00 -0.95000E+00  0.00000E+00  0.00000E+00  0.00000E+00    0.20529E+02  0.23513E+02 -0.44042E+02 -0.46487E+01 -0.41332E+01 -0.95867E+01      982.00
  0.92827E+00  0.69013E+02    0.48750E+00  0.48750E+00 -0.97500E+00  0.00000E+00  0.00000E+00  0.00000E+00    0.20561E+02  0.23490E+02 -0.44051E+02 -0.46268E+01 -0.40987E+01 -0.95865E+01      982.00
  0.95221E+00  0.69012E+02    0.50000E+00  0.50000E+00 -0.10000E+01  0.00000E+00  0.00000E+00  0.00000E+00    0.20591E+02  0.23467E+02 -0.44058E+02 -0.46063E+01 -0.40650E+01 -0.95875E+01      982.00
