          Evm          Svm            E11          E22          E33          E23          E13          E12         SDEV11       SDEV22       SDEV33       SDEV23       SDEV13       SDEV12      TEMP
  0.00000E+00  0.59331E+02    0.00000E+00  0.00000E+00  0.00000E+00  0.00000E+00  0.00000E+00  0.00000E+00    0.22756E+02  0.14398E+02 -0.37154E+02 -0.22084E+01  0.55245E+01  0.92325E+01      982.00
  0.23483E-01  0.59476E+02    0.12500E-01  0.12500E-01 -0.25000E-01  0.00000E+00  0.00000E+00  0.00000E+00    0.22294E+02  0.14932E+02 -0.37226E+02 -0.22269E+01  0.52420E+01  0.96865E+01      982.00
  0.46954E-01  0.59721E+02    0.25000E-01  0.25000E-01 -0.50000E-01  0.00000E+00  0.00000E+00  0.00000E+00    0.21852E+02  0.15496E+02 -0.37347E+02 -0.22353E+01  0.49367E+01  0.10163E+02      982.00
  0.70405E-01  0.60032E+02    0.37500E-01  0.37500E-01 -0.75000E-01  0.00000E+00  0.00000E+00  0.00000E+00    0.21430E+02  0.16064E+02 -0.37494E+02 -0.22340E+01  0.46169E+01  0.10650E+02      982.00
  0.93826E-01  0.60378E+02    0.50000E-01  0.50000E-01 -0.10000E+00  0.00000E+00  0.00000E+00  0.00000E+00    0.21036E+02  0.16610E+02 -0.37646E+02 -0.22308E+01  0.43148E+01  0.11127E+02      982.00
  0.11721E+00  0.60726E+02    0.62500E-01  0.62500E-01 -0.12500E+00  0.00000E+00  0.00000E+00  0.00000E+00    0.20663E+02  0.17120E+02 -0.37783E+02 -0.22440E+01  0.40531E+01  0.11573E+02      982.00
  0.14054E+00  0.61035E+02    0.75000E-01  0.75000E-01 -0.15000E+00  0.00000E+00  0.00000E+00  0.00000E+00    0.20326E+02  0.17565E+02 -0.37891E+02 -0.22730E+01  0.38417E+01  0.11963E+02      982.00
  0.16382E+00  0.61300E+02    0.87500E-01  0.87500E-01 -0.17500E+00  0.00000E+00  0.00000E+00  0.00000E+00    0.20042E+02  0.17934E+02 -0.37976E+02 -0.22956E+01  0.36549E+01  0.12296E+02      982.00
  0.18705E+00  0.61550E+02    0.10000E+00  0.10000E+00 -0.20000E+00  0.00000E+00  0.00000E+00  0.00000E+00    0.19820E+02  0.18238E+02 -0.38058E+02 -0.22920E+01  0.34708E+01  0.12593E+02      982.00
  0.21024E+00  0.61800E+02    0.11250E+00  0.11250E+00 -0.22500E+00  0.00000E+00  0.00000E+00  0.00000E+00    0.19654E+02  0.18489E+02 -0.38143E+02 -0.22581E+01  0.32873E+01  0.12872E+02      982.00
  0.23338E+00  0.62056E+02    0.12500E+00  0.12500E+00 -0.25000E+00  0.00000E+00  0.00000E+00  0.00000E+00    0.19540E+02  0.18692E+02 -0.38232E+02 -0.21970E+01  0.31118E+01  0.13142E+02      982.00
  0.25649E+00  0.62318E+02    0.13750E+00  0.13750E+00 -0.27500E+00  0.00000E+00  0.00000E+00  0.00000E+00    0.19452E+02  0.18871E+02 -0.38322E+02 -0.21260E+01  0.29428E+01  0.13409E+02      982.00
  0.27955E+00  0.62585E+02    0.15000E+00  0.15000E+00 -0.30000E+00  0.00000E+00  0.00000E+00  0.00000E+00    0.19394E+02  0.19019E+02 -0.38413E+02 -0.20463E+01  0.27885E+01  0.13673E+02      982.00
  0.30256E+00  0.62854E+02    0.16250E+00  0.16250E+00 -0.32500E+00  0.00000E+00  0.00000E+00  0.00000E+00    0.19351E+02  0.19151E+02 -0.38502E+02 -0.19676E+01  0.26473E+01  0.13935E+02      982.00
  0.32553E+00  0.63121E+02    0.17500E+00  0.17500E+00 -0.35000E+00  0.00000E+00  0.00000E+00  0.00000E+00    0.19309E+02  0.19276E+02 -0.38585E+02 -0.18983E+01  0.25162E+01  0.14195E+02      982.00
  0.34846E+00  0.63385E+02    0.18750E+00  0.18750E+00 -0.37500E+00  0.00000E+00  0.00000E+00  0.00000E+00    0.19279E+02  0.19386E+02 -0.38665E+02 -0.18320E+01  0.24012E+01  0.14452E+02      982.00
  0.37133E+00  0.63643E+02    0.20000E+00  0.20000E+00 -0.40000E+00  0.00000E+00  0.00000E+00  0.00000E+00    0.19251E+02  0.19487E+02 -0.38737E+02 -0.17730E+01  0.22992E+01  0.14706E+02      982.00
  0.39416E+00  0.63892E+02    0.21250E+00  0.21250E+00 -0.42500E+00  0.00000E+00  0.00000E+00  0.00000E+00    0.19213E+02  0.19592E+02 -0.38805E+02 -0.17280E+01  0.22060E+01  0.14949E+02      982.00
  0.41693E+00  0.64134E+02    0.22500E+00  0.22500E+00 -0.45000E+00  0.00000E+00  0.00000E+00  0.00000E+00    0.19179E+02  0.19688E+02 -0.38868E+02 -0.16877E+01  0.21251E+01  0.15186E+02      982.00
  0.43966E+00  0.64367E+02    0.23750E+00  0.23750E+00 -0.47500E+00  0.00000E+00  0.00000E+00  0.00000E+00    0.19143E+02  0.19782E+02 -0.38925E+02 -0.16552E+01  0.20541E+01  0.15413E+02      982.00
  0.46234E+00  0.64589E+02    0.25000E+00  0.25000E+00 -0.50000E+00  0.00000E+00  0.00000E+00  0.00000E+00    0.19105E+02  0.19874E+02 -0.38979E+02 -0.16302E+01  0.19920E+01  0.15630E+02      982.00
  0.48497E+00  0.64800E+02    0.26250E+00  0.26250E+00 -0.52500E+00  0.00000E+00  0.00000E+00  0.00000E+00    0.19063E+02  0.19965E+02 -0.39028E+02 -0.16115E+01  0.19379E+01  0.15834E+02      982.00
  0.50756E+00  0.65000E+02    0.27500E+00  0.27500E+00 -0.55000E+00  0.00000E+00  0.00000E+00  0.00000E+00    0.19021E+02  0.20053E+02 -0.39074E+02 -0.15985E+01  0.18910E+01  0.16027E+02      982.00
  0.53010E+00  0.65186E+02    0.28750E+00  0.28750E+00 -0.57500E+00  0.00000E+00  0.00000E+00  0.00000E+00    0.18969E+02  0.20147E+02 -0.39116E+02 -0.15941E+01  0.18482E+01  0.16204E+02      982.00
  0.55260E+00  0.65364E+02    0.30000E+00  0.30000E+00 -0.60000E+00  0.00000E+00  0.00000E+00  0.00000E+00    0.18925E+02  0.20231E+02 -0.39155E+02 -0.15894E+01  0.18133E+01  0.16373E+02      982.00
  0.57506E+00  0.65531E+02    0.31250E+00  0.31250E+00 -0.62500E+00  0.00000E+00  0.00000E+00  0.00000E+00    0.18881E+02  0.20311E+02 -0.39192E+02 -0.15878E+01  0.17836E+01  0.16530E+02      982.00
  0.59749E+00  0.65681E+02    0.32500E+00  0.32500E+00 -0.65000E+00  0.00000E+00  0.00000E+00  0.00000E+00    0.18832E+02  0.20392E+02 -0.39224E+02 -0.15926E+01  0.17576E+01  0.16670E+02      982.00
  0.61989E+00  0.65828E+02    0.33750E+00  0.33750E+00 -0.67500E+00  0.00000E+00  0.00000E+00  0.00000E+00    0.18791E+02  0.20465E+02 -0.39256E+02 -0.15952E+01  0.17359E+01  0.16805E+02      982.00
  0.64225E+00  0.65966E+02    0.35000E+00  0.35000E+00 -0.70000E+00  0.00000E+00  0.00000E+00  0.00000E+00    0.18753E+02  0.20534E+02 -0.39287E+02 -0.15993E+01  0.17178E+01  0.16931E+02      982.00
  0.66458E+00  0.66095E+02    0.36250E+00  0.36250E+00 -0.72500E+00  0.00000E+00  0.00000E+00  0.00000E+00    0.18717E+02  0.20599E+02 -0.39315E+02 -0.16046E+01  0.17024E+01  0.17046E+02      982.00
  0.68689E+00  0.66208E+02    0.37500E+00  0.37500E+00 -0.75000E+00  0.00000E+00  0.00000E+00  0.00000E+00    0.18673E+02  0.20668E+02 -0.39342E+02 -0.16137E+01  0.16850E+01  0.17143E+02      982.00
  0.70917E+00  0.66321E+02    0.38750E+00  0.38750E+00 -0.77500E+00  0.00000E+00  0.00000E+00  0.00000E+00    0.18642E+02  0.20725E+02 -0.39367E+02 -0.16207E+01  0.16741E+01  0.17243E+02      982.00
  0.73143E+00  0.66422E+02    0.40000E+00  0.40000E+00 -0.80000E+00  0.00000E+00  0.00000E+00  0.00000E+00    0.18615E+02  0.20772E+02 -0.39387E+02 -0.16282E+01  0.16686E+01  0.17335E+02      982.00
  0.75367E+00  0.66520E+02    0.41250E+00  0.41250E+00 -0.82500E+00  0.00000E+00  0.00000E+00  0.00000E+00    0.18589E+02  0.20821E+02 -0.39410E+02 -0.16358E+01  0.16615E+01  0.17419E+02      982.00
  0.77588E+00  0.66611E+02    0.42500E+00  0.42500E+00 -0.85000E+00  0.00000E+00  0.00000E+00  0.00000E+00    0.18565E+02  0.20866E+02 -0.39431E+02 -0.16438E+01  0.16554E+01  0.17497E+02      982.00
  0.79808E+00  0.66682E+02    0.43750E+00  0.43750E+00 -0.87500E+00  0.00000E+00  0.00000E+00  0.00000E+00    0.18537E+02  0.20914E+02 -0.39451E+02 -0.16532E+01  0.16452E+01  0.17551E+02      982.00
  0.82027E+00  0.66764E+02    0.45000E+00  0.45000E+00 -0.90000E+00  0.00000E+00  0.00000E+00  0.00000E+00    0.18518E+02  0.20952E+02 -0.39471E+02 -0.16616E+01  0.16411E+01  0.17619E+02      982.00
  0.84244E+00  0.66839E+02    0.46250E+00  0.46250E+00 -0.92500E+00  0.00000E+00  0.00000E+00  0.00000E+00    0.18502E+02  0.20986E+02 -0.39488E+02 -0.16699E+01  0.16383E+01  0.17682E+02      982.00
  0.86459E+00  0.66909E+02    0.47500E+00  0.47500E+00 -0.95000E+00  0.00000E+00  0.00000E+00  0.00000E+00    0.18489E+02  0.21017E+02 -0.39505E+02 -0.16782E+01  0.16362E+01  0.17739E+02      982.00
  0.88673E+00  0.66974E+02    0.48750E+00  0.48750E+00 -0.97500E+00  0.00000E+00  0.00000E+00  0.00000E+00    0.18477E+02  0.21044E+02 -0.39521E+02 -0.16863E+01  0.16346E+01  0.17792E+02      982.00
  0.90886E+00  0.67031E+02    0.50000E+00  0.50000E+00 -0.10000E+01  0.00000E+00  0.00000E+00  0.00000E+00    0.18461E+02  0.21077E+02 -0.39538E+02 -0.16954E+01  0.16285E+01  0.17834E+02      982.00
