          Evm          Svm            E11          E22          E33          E23          E13          E12         SDEV11       SDEV22       SDEV33       SDEV23       SDEV13       SDEV12      TEMP
  0.00000E+00  0.61464E+02    0.00000E+00  0.00000E+00  0.00000E+00  0.00000E+00  0.00000E+00  0.00000E+00    0.19571E+02  0.17564E+02 -0.37135E+02 -0.19229E+01  0.10197E+01  0.14808E+02      982.00
  0.22656E-01  0.61459E+02    0.12500E-01  0.12500E-01 -0.25000E-01  0.00000E+00  0.00000E+00  0.00000E+00    0.19496E+02  0.17649E+02 -0.37146E+02 -0.18724E+01  0.99389E+00  0.14794E+02      982.00
  0.45321E-01  0.61480E+02    0.25000E-01  0.25000E-01 -0.50000E-01  0.00000E+00  0.00000E+00  0.00000E+00    0.19468E+02  0.17711E+02 -0.37178E+02 -0.18187E+01  0.10004E+01  0.14771E+02      982.00
  0.67999E-01  0.61515E+02    0.37500E-01  0.37500E-01 -0.75000E-01  0.00000E+00  0.00000E+00  0.00000E+00    0.19477E+02  0.17756E+02 -0.37233E+02 -0.17663E+01  0.10231E+01  0.14722E+02      982.00
  0.90696E-01  0.61564E+02    0.50000E-01  0.50000E-01 -0.10000E+00  0.00000E+00  0.00000E+00  0.00000E+00    0.19525E+02  0.17782E+02 -0.37307E+02 -0.17120E+01  0.10466E+01  0.14655E+02      982.00
  0.11342E+00  0.61644E+02    0.62500E-01  0.62500E-01 -0.12500E+00  0.00000E+00  0.00000E+00  0.00000E+00    0.19602E+02  0.17798E+02 -0.37400E+02 -0.16377E+01  0.10644E+01  0.14592E+02      982.00
  0.13617E+00  0.61747E+02    0.75000E-01  0.75000E-01 -0.15000E+00  0.00000E+00  0.00000E+00  0.00000E+00    0.19689E+02  0.17812E+02 -0.37501E+02 -0.15627E+01  0.10583E+01  0.14551E+02      982.00
  0.15895E+00  0.61894E+02    0.87500E-01  0.87500E-01 -0.17500E+00  0.00000E+00  0.00000E+00  0.00000E+00    0.19784E+02  0.17840E+02 -0.37623E+02 -0.14784E+01  0.10408E+01  0.14529E+02      982.00
  0.18174E+00  0.62089E+02    0.10000E+00  0.10000E+00 -0.20000E+00  0.00000E+00  0.00000E+00  0.00000E+00    0.19891E+02  0.17870E+02 -0.37761E+02 -0.13799E+01  0.10102E+01  0.14548E+02      982.00
  0.20455E+00  0.62299E+02    0.11250E+00  0.11250E+00 -0.22500E+00  0.00000E+00  0.00000E+00  0.00000E+00    0.19995E+02  0.17904E+02 -0.37899E+02 -0.12855E+01  0.97230E+00  0.14587E+02      982.00
  0.22736E+00  0.62533E+02    0.12500E+00  0.12500E+00 -0.25000E+00  0.00000E+00  0.00000E+00  0.00000E+00    0.20098E+02  0.17946E+02 -0.38044E+02 -0.11967E+01  0.93110E+00  0.14645E+02      982.00
  0.25018E+00  0.62781E+02    0.13750E+00  0.13750E+00 -0.27500E+00  0.00000E+00  0.00000E+00  0.00000E+00    0.20198E+02  0.17994E+02 -0.38192E+02 -0.11152E+01  0.88878E+00  0.14718E+02      982.00
  0.27299E+00  0.63028E+02    0.15000E+00  0.15000E+00 -0.30000E+00  0.00000E+00  0.00000E+00  0.00000E+00    0.20292E+02  0.18040E+02 -0.38332E+02 -0.10383E+01  0.84365E+00  0.14802E+02      982.00
  0.29580E+00  0.63289E+02    0.16250E+00  0.16250E+00 -0.32500E+00  0.00000E+00  0.00000E+00  0.00000E+00    0.20385E+02  0.18097E+02 -0.38482E+02 -0.97577E+00  0.80657E+00  0.14886E+02      982.00
  0.31860E+00  0.63548E+02    0.17500E+00  0.17500E+00 -0.35000E+00  0.00000E+00  0.00000E+00  0.00000E+00    0.20474E+02  0.18157E+02 -0.38631E+02 -0.92279E+00  0.77399E+00  0.14969E+02      982.00
  0.34139E+00  0.63803E+02    0.18750E+00  0.18750E+00 -0.37500E+00  0.00000E+00  0.00000E+00  0.00000E+00    0.20560E+02  0.18217E+02 -0.38777E+02 -0.87953E+00  0.74667E+00  0.15049E+02      982.00
  0.36418E+00  0.64073E+02    0.20000E+00  0.20000E+00 -0.40000E+00  0.00000E+00  0.00000E+00  0.00000E+00    0.20649E+02  0.18278E+02 -0.38928E+02 -0.83807E+00  0.71805E+00  0.15143E+02      982.00
  0.38697E+00  0.64309E+02    0.21250E+00  0.21250E+00 -0.42500E+00  0.00000E+00  0.00000E+00  0.00000E+00    0.20732E+02  0.18335E+02 -0.39067E+02 -0.81648E+00  0.70444E+00  0.15208E+02      982.00
  0.40975E+00  0.64533E+02    0.22500E+00  0.22500E+00 -0.45000E+00  0.00000E+00  0.00000E+00  0.00000E+00    0.20814E+02  0.18388E+02 -0.39202E+02 -0.80647E+00  0.69925E+00  0.15263E+02      982.00
  0.43253E+00  0.64776E+02    0.23750E+00  0.23750E+00 -0.47500E+00  0.00000E+00  0.00000E+00  0.00000E+00    0.20905E+02  0.18442E+02 -0.39348E+02 -0.80557E+00  0.69998E+00  0.15324E+02      982.00
  0.45531E+00  0.64947E+02    0.25000E+00  0.25000E+00 -0.50000E+00  0.00000E+00  0.00000E+00  0.00000E+00    0.20979E+02  0.18478E+02 -0.39457E+02 -0.82683E+00  0.71817E+00  0.15351E+02      982.00
  0.47809E+00  0.65135E+02    0.26250E+00  0.26250E+00 -0.52500E+00  0.00000E+00  0.00000E+00  0.00000E+00    0.21064E+02  0.18519E+02 -0.39583E+02 -0.86249E+00  0.74882E+00  0.15368E+02      982.00
  0.50088E+00  0.65296E+02    0.27500E+00  0.27500E+00 -0.55000E+00  0.00000E+00  0.00000E+00  0.00000E+00    0.21136E+02  0.18559E+02 -0.39695E+02 -0.90397E+00  0.78521E+00  0.15372E+02      982.00
  0.52368E+00  0.65482E+02    0.28750E+00  0.28750E+00 -0.57500E+00  0.00000E+00  0.00000E+00  0.00000E+00    0.21219E+02  0.18608E+02 -0.39827E+02 -0.96134E+00  0.83571E+00  0.15374E+02      982.00
  0.54648E+00  0.65668E+02    0.30000E+00  0.30000E+00 -0.60000E+00  0.00000E+00  0.00000E+00  0.00000E+00    0.21307E+02  0.18654E+02 -0.39961E+02 -0.10436E+01  0.90709E+00  0.15366E+02      982.00
  0.56930E+00  0.65829E+02    0.31250E+00  0.31250E+00 -0.62500E+00  0.00000E+00  0.00000E+00  0.00000E+00    0.21395E+02  0.18691E+02 -0.40086E+02 -0.11487E+01  0.99664E+00  0.15335E+02      982.00
  0.59214E+00  0.65983E+02    0.32500E+00  0.32500E+00 -0.65000E+00  0.00000E+00  0.00000E+00  0.00000E+00    0.21484E+02  0.18729E+02 -0.40213E+02 -0.12735E+01  0.11029E+01  0.15288E+02      982.00
  0.61499E+00  0.66144E+02    0.33750E+00  0.33750E+00 -0.67500E+00  0.00000E+00  0.00000E+00  0.00000E+00    0.21571E+02  0.18776E+02 -0.40347E+02 -0.14036E+01  0.12145E+01  0.15234E+02      982.00
  0.63787E+00  0.66293E+02    0.35000E+00  0.35000E+00 -0.70000E+00  0.00000E+00  0.00000E+00  0.00000E+00    0.21660E+02  0.18820E+02 -0.40480E+02 -0.15536E+01  0.13422E+01  0.15156E+02      982.00
  0.66076E+00  0.66441E+02    0.36250E+00  0.36250E+00 -0.72500E+00  0.00000E+00  0.00000E+00  0.00000E+00    0.21746E+02  0.18870E+02 -0.40616E+02 -0.17043E+01  0.14706E+01  0.15070E+02      982.00
  0.68369E+00  0.66587E+02    0.37500E+00  0.37500E+00 -0.75000E+00  0.00000E+00  0.00000E+00  0.00000E+00    0.21833E+02  0.18922E+02 -0.40755E+02 -0.18593E+01  0.16018E+01  0.14969E+02      982.00
  0.70664E+00  0.66735E+02    0.38750E+00  0.38750E+00 -0.77500E+00  0.00000E+00  0.00000E+00  0.00000E+00    0.21917E+02  0.18981E+02 -0.40898E+02 -0.20059E+01  0.17253E+01  0.14862E+02      982.00
  0.72962E+00  0.66879E+02    0.40000E+00  0.40000E+00 -0.80000E+00  0.00000E+00  0.00000E+00  0.00000E+00    0.21998E+02  0.19042E+02 -0.41041E+02 -0.21467E+01  0.18431E+01  0.14748E+02      982.00
  0.75263E+00  0.67022E+02    0.41250E+00  0.41250E+00 -0.82500E+00  0.00000E+00  0.00000E+00  0.00000E+00    0.22076E+02  0.19107E+02 -0.41184E+02 -0.22761E+01  0.19505E+01  0.14631E+02      982.00
  0.77568E+00  0.67163E+02    0.42500E+00  0.42500E+00 -0.85000E+00  0.00000E+00  0.00000E+00  0.00000E+00    0.22151E+02  0.19175E+02 -0.41326E+02 -0.23927E+01  0.20462E+01  0.14513E+02      982.00
  0.79875E+00  0.67303E+02    0.43750E+00  0.43750E+00 -0.87500E+00  0.00000E+00  0.00000E+00  0.00000E+00    0.22222E+02  0.19245E+02 -0.41467E+02 -0.24961E+01  0.21300E+01  0.14397E+02      982.00
  0.82186E+00  0.67439E+02    0.45000E+00  0.45000E+00 -0.90000E+00  0.00000E+00  0.00000E+00  0.00000E+00    0.22291E+02  0.19315E+02 -0.41606E+02 -0.25940E+01  0.22083E+01  0.14280E+02      982.00
  0.84499E+00  0.67572E+02    0.46250E+00  0.46250E+00 -0.92500E+00  0.00000E+00  0.00000E+00  0.00000E+00    0.22354E+02  0.19387E+02 -0.41741E+02 -0.26718E+01  0.22689E+01  0.14169E+02      982.00
  0.86816E+00  0.67708E+02    0.47500E+00  0.47500E+00 -0.95000E+00  0.00000E+00  0.00000E+00  0.00000E+00    0.22416E+02  0.19464E+02 -0.41880E+02 -0.27342E+01  0.23158E+01  0.14059E+02      982.00
  0.89135E+00  0.67832E+02    0.48750E+00  0.48750E+00 -0.97500E+00  0.00000E+00  0.00000E+00  0.00000E+00    0.22473E+02  0.19533E+02 -0.42006E+02 -0.27971E+01  0.23624E+01  0.13957E+02      982.00
  0.91457E+00  0.67952E+02    0.50000E+00  0.50000E+00 -0.10000E+01  0.00000E+00  0.00000E+00  0.00000E+00    0.22525E+02  0.19603E+02 -0.42129E+02 -0.28434E+01  0.23945E+01  0.13860E+02      982.00
