          Evm          Svm            E11          E22          E33          E23          E13          E12         SDEV11       SDEV22       SDEV33       SDEV23       SDEV13       SDEV12      TEMP
  0.00000E+00  0.64088E+02    0.00000E+00  0.00000E+00  0.00000E+00  0.00000E+00  0.00000E+00  0.00000E+00    0.23293E+02  0.17277E+02 -0.40570E+02  0.65853E+01  0.23043E+01 -0.87714E+01      982.00
  0.23739E-01  0.64052E+02    0.12500E-01  0.12500E-01 -0.25000E-01  0.00000E+00  0.00000E+00  0.00000E+00    0.23602E+02  0.17056E+02 -0.40658E+02  0.62915E+01  0.23228E+01 -0.84906E+01      982.00
  0.47542E-01  0.63916E+02    0.25000E-01  0.25000E-01 -0.50000E-01  0.00000E+00  0.00000E+00  0.00000E+00    0.23787E+02  0.16907E+02 -0.40694E+02  0.59953E+01  0.23748E+01 -0.81457E+01      982.00
  0.71417E-01  0.63831E+02    0.37500E-01  0.37500E-01 -0.75000E-01  0.00000E+00  0.00000E+00  0.00000E+00    0.23993E+02  0.16758E+02 -0.40751E+02  0.56912E+01  0.25567E+01 -0.77890E+01      982.00
  0.95358E-01  0.63844E+02    0.50000E-01  0.50000E-01 -0.10000E+00  0.00000E+00  0.00000E+00  0.00000E+00    0.24216E+02  0.16628E+02 -0.40844E+02  0.54314E+01  0.28146E+01 -0.74633E+01      982.00
  0.11935E+00  0.63941E+02    0.62500E-01  0.62500E-01 -0.12500E+00  0.00000E+00  0.00000E+00  0.00000E+00    0.24454E+02  0.16511E+02 -0.40966E+02  0.52216E+01  0.30831E+01 -0.71852E+01      982.00
  0.14337E+00  0.64102E+02    0.75000E-01  0.75000E-01 -0.15000E+00  0.00000E+00  0.00000E+00  0.00000E+00    0.24706E+02  0.16402E+02 -0.41108E+02  0.50559E+01  0.33242E+01 -0.69601E+01      982.00
  0.16742E+00  0.64313E+02    0.87500E-01  0.87500E-01 -0.17500E+00  0.00000E+00  0.00000E+00  0.00000E+00    0.24958E+02  0.16309E+02 -0.41267E+02  0.49318E+01  0.35192E+01 -0.67882E+01      982.00
  0.19148E+00  0.64567E+02    0.10000E+00  0.10000E+00 -0.20000E+00  0.00000E+00  0.00000E+00  0.00000E+00    0.25226E+02  0.16217E+02 -0.41443E+02  0.48339E+01  0.36707E+01 -0.66604E+01      982.00
  0.21555E+00  0.64854E+02    0.11250E+00  0.11250E+00 -0.22500E+00  0.00000E+00  0.00000E+00  0.00000E+00    0.25504E+02  0.16128E+02 -0.41632E+02  0.47578E+01  0.37815E+01 -0.65687E+01      982.00
  0.23963E+00  0.65160E+02    0.12500E+00  0.12500E+00 -0.25000E+00  0.00000E+00  0.00000E+00  0.00000E+00    0.25782E+02  0.16048E+02 -0.41829E+02  0.47021E+01  0.38560E+01 -0.65058E+01      982.00
  0.26370E+00  0.65482E+02    0.13750E+00  0.13750E+00 -0.27500E+00  0.00000E+00  0.00000E+00  0.00000E+00    0.26069E+02  0.15965E+02 -0.42034E+02  0.46560E+01  0.39047E+01 -0.64607E+01      982.00
  0.28777E+00  0.65808E+02    0.15000E+00  0.15000E+00 -0.30000E+00  0.00000E+00  0.00000E+00  0.00000E+00    0.26348E+02  0.15890E+02 -0.42238E+02  0.46244E+01  0.39298E+01 -0.64302E+01      982.00
  0.31184E+00  0.66134E+02    0.16250E+00  0.16250E+00 -0.32500E+00  0.00000E+00  0.00000E+00  0.00000E+00    0.26629E+02  0.15813E+02 -0.42442E+02  0.45965E+01  0.39399E+01 -0.64047E+01      982.00
  0.33591E+00  0.66453E+02    0.17500E+00  0.17500E+00 -0.35000E+00  0.00000E+00  0.00000E+00  0.00000E+00    0.26897E+02  0.15744E+02 -0.42640E+02  0.45802E+01  0.39360E+01 -0.63852E+01      982.00
  0.35997E+00  0.66760E+02    0.18750E+00  0.18750E+00 -0.37500E+00  0.00000E+00  0.00000E+00  0.00000E+00    0.27161E+02  0.15671E+02 -0.42832E+02  0.45633E+01  0.39244E+01 -0.63637E+01      982.00
  0.38403E+00  0.67055E+02    0.20000E+00  0.20000E+00 -0.40000E+00  0.00000E+00  0.00000E+00  0.00000E+00    0.27408E+02  0.15608E+02 -0.43015E+02  0.45566E+01  0.39045E+01 -0.63436E+01      982.00
  0.40808E+00  0.67334E+02    0.21250E+00  0.21250E+00 -0.42500E+00  0.00000E+00  0.00000E+00  0.00000E+00    0.27644E+02  0.15546E+02 -0.43189E+02  0.45526E+01  0.38799E+01 -0.63209E+01      982.00
  0.43214E+00  0.67594E+02    0.22500E+00  0.22500E+00 -0.45000E+00  0.00000E+00  0.00000E+00  0.00000E+00    0.27871E+02  0.15479E+02 -0.43350E+02  0.45450E+01  0.38542E+01 -0.62937E+01      982.00
  0.45619E+00  0.67839E+02    0.23750E+00  0.23750E+00 -0.47500E+00  0.00000E+00  0.00000E+00  0.00000E+00    0.28083E+02  0.15421E+02 -0.43504E+02  0.45460E+01  0.38238E+01 -0.62655E+01      982.00
  0.48024E+00  0.68064E+02    0.25000E+00  0.25000E+00 -0.50000E+00  0.00000E+00  0.00000E+00  0.00000E+00    0.28287E+02  0.15357E+02 -0.43643E+02  0.45416E+01  0.37958E+01 -0.62331E+01      982.00
  0.50428E+00  0.68277E+02    0.26250E+00  0.26250E+00 -0.52500E+00  0.00000E+00  0.00000E+00  0.00000E+00    0.28474E+02  0.15302E+02 -0.43776E+02  0.45451E+01  0.37630E+01 -0.61994E+01      982.00
  0.52832E+00  0.68474E+02    0.27500E+00  0.27500E+00 -0.55000E+00  0.00000E+00  0.00000E+00  0.00000E+00    0.28651E+02  0.15248E+02 -0.43900E+02  0.45494E+01  0.37295E+01 -0.61632E+01      982.00
  0.55237E+00  0.68655E+02    0.28750E+00  0.28750E+00 -0.57500E+00  0.00000E+00  0.00000E+00  0.00000E+00    0.28818E+02  0.15195E+02 -0.44013E+02  0.45539E+01  0.36959E+01 -0.61249E+01      982.00
  0.57641E+00  0.68819E+02    0.30000E+00  0.30000E+00 -0.60000E+00  0.00000E+00  0.00000E+00  0.00000E+00    0.28976E+02  0.15139E+02 -0.44116E+02  0.45511E+01  0.36648E+01 -0.60864E+01      982.00
  0.60045E+00  0.68975E+02    0.31250E+00  0.31250E+00 -0.62500E+00  0.00000E+00  0.00000E+00  0.00000E+00    0.29125E+02  0.15088E+02 -0.44213E+02  0.45564E+01  0.36313E+01 -0.60454E+01      982.00
  0.62448E+00  0.69110E+02    0.32500E+00  0.32500E+00 -0.65000E+00  0.00000E+00  0.00000E+00  0.00000E+00    0.29269E+02  0.15027E+02 -0.44296E+02  0.45554E+01  0.36051E+01 -0.60030E+01      982.00
  0.64852E+00  0.69240E+02    0.33750E+00  0.33750E+00 -0.67500E+00  0.00000E+00  0.00000E+00  0.00000E+00    0.29401E+02  0.14976E+02 -0.44377E+02  0.45594E+01  0.35723E+01 -0.59596E+01      982.00
  0.67255E+00  0.69363E+02    0.35000E+00  0.35000E+00 -0.70000E+00  0.00000E+00  0.00000E+00  0.00000E+00    0.29527E+02  0.14927E+02 -0.44453E+02  0.45648E+01  0.35393E+01 -0.59170E+01      982.00
  0.69659E+00  0.69476E+02    0.36250E+00  0.36250E+00 -0.72500E+00  0.00000E+00  0.00000E+00  0.00000E+00    0.29646E+02  0.14877E+02 -0.44523E+02  0.45699E+01  0.35067E+01 -0.58741E+01      982.00
  0.72062E+00  0.69578E+02    0.37500E+00  0.37500E+00 -0.75000E+00  0.00000E+00  0.00000E+00  0.00000E+00    0.29768E+02  0.14817E+02 -0.44585E+02  0.45705E+01  0.34785E+01 -0.58240E+01      982.00
  0.74465E+00  0.69674E+02    0.38750E+00  0.38750E+00 -0.77500E+00  0.00000E+00  0.00000E+00  0.00000E+00    0.29876E+02  0.14769E+02 -0.44645E+02  0.45747E+01  0.34464E+01 -0.57814E+01      982.00
  0.76868E+00  0.69763E+02    0.40000E+00  0.40000E+00 -0.80000E+00  0.00000E+00  0.00000E+00  0.00000E+00    0.29978E+02  0.14721E+02 -0.44699E+02  0.45791E+01  0.34147E+01 -0.57393E+01      982.00
  0.79270E+00  0.69844E+02    0.41250E+00  0.41250E+00 -0.82500E+00  0.00000E+00  0.00000E+00  0.00000E+00    0.30075E+02  0.14674E+02 -0.44749E+02  0.45835E+01  0.33833E+01 -0.56976E+01      982.00
  0.81673E+00  0.69923E+02    0.42500E+00  0.42500E+00 -0.85000E+00  0.00000E+00  0.00000E+00  0.00000E+00    0.30186E+02  0.14611E+02 -0.44797E+02  0.45850E+01  0.33474E+01 -0.56392E+01      982.00
  0.84075E+00  0.69992E+02    0.43750E+00  0.43750E+00 -0.87500E+00  0.00000E+00  0.00000E+00  0.00000E+00    0.30274E+02  0.14564E+02 -0.44839E+02  0.45877E+01  0.33168E+01 -0.55988E+01      982.00
  0.86478E+00  0.70056E+02    0.45000E+00  0.45000E+00 -0.90000E+00  0.00000E+00  0.00000E+00  0.00000E+00    0.30358E+02  0.14519E+02 -0.44877E+02  0.45914E+01  0.32866E+01 -0.55592E+01      982.00
  0.88880E+00  0.70056E+02    0.46250E+00  0.46250E+00 -0.92500E+00  0.00000E+00  0.00000E+00  0.00000E+00    0.30402E+02  0.14478E+02 -0.44880E+02  0.45793E+01  0.32335E+01 -0.55217E+01      982.00
  0.91282E+00  0.70056E+02    0.47500E+00  0.47500E+00 -0.95000E+00  0.00000E+00  0.00000E+00  0.00000E+00    0.30446E+02  0.14435E+02 -0.44882E+02  0.45688E+01  0.31905E+01 -0.54826E+01      982.00
  0.93685E+00  0.70058E+02    0.48750E+00  0.48750E+00 -0.97500E+00  0.00000E+00  0.00000E+00  0.00000E+00    0.30491E+02  0.14392E+02 -0.44883E+02  0.45584E+01  0.31502E+01 -0.54444E+01      982.00
  0.96087E+00  0.70057E+02    0.50000E+00  0.50000E+00 -0.10000E+01  0.00000E+00  0.00000E+00  0.00000E+00    0.30522E+02  0.14360E+02 -0.44882E+02  0.45487E+01  0.31237E+01 -0.54237E+01      982.00
