          Evm          Svm            E11          E22          E33          E23          E13          E12         SDEV11       SDEV22       SDEV33       SDEV23       SDEV13       SDEV12      TEMP
  0.00000E+00  0.55588E+02    0.00000E+00  0.00000E+00  0.00000E+00  0.00000E+00  0.00000E+00  0.00000E+00    0.14676E+02  0.19352E+02 -0.34028E+02 -0.47881E+01  0.12527E+01  0.11474E+02      982.00
  0.22955E-01  0.55614E+02    0.12500E-01  0.12500E-01 -0.25000E-01  0.00000E+00  0.00000E+00  0.00000E+00    0.15118E+02  0.18923E+02 -0.34041E+02 -0.43537E+01  0.14339E+01  0.11716E+02      982.00
  0.45909E-01  0.55717E+02    0.25000E-01  0.25000E-01 -0.50000E-01  0.00000E+00  0.00000E+00  0.00000E+00    0.15539E+02  0.18538E+02 -0.34077E+02 -0.39801E+01  0.15747E+01  0.11971E+02      982.00
  0.68844E-01  0.55917E+02    0.37500E-01  0.37500E-01 -0.75000E-01  0.00000E+00  0.00000E+00  0.00000E+00    0.15905E+02  0.18243E+02 -0.34147E+02 -0.36662E+01  0.16768E+01  0.12251E+02      982.00
  0.91744E-01  0.56222E+02    0.50000E-01  0.50000E-01 -0.10000E+00  0.00000E+00  0.00000E+00  0.00000E+00    0.16206E+02  0.18054E+02 -0.34260E+02 -0.34024E+01  0.17471E+01  0.12564E+02      982.00
  0.11460E+00  0.56626E+02    0.62500E-01  0.62500E-01 -0.12500E+00  0.00000E+00  0.00000E+00  0.00000E+00    0.16454E+02  0.17960E+02 -0.34414E+02 -0.31778E+01  0.17943E+01  0.12911E+02      982.00
  0.13739E+00  0.57099E+02    0.75000E-01  0.75000E-01 -0.15000E+00  0.00000E+00  0.00000E+00  0.00000E+00    0.16660E+02  0.17940E+02 -0.34600E+02 -0.29847E+01  0.18229E+01  0.13276E+02      982.00
  0.16011E+00  0.57615E+02    0.87500E-01  0.87500E-01 -0.17500E+00  0.00000E+00  0.00000E+00  0.00000E+00    0.16834E+02  0.17973E+02 -0.34807E+02 -0.28176E+01  0.18365E+01  0.13645E+02      982.00
  0.18277E+00  0.58150E+02    0.10000E+00  0.10000E+00 -0.20000E+00  0.00000E+00  0.00000E+00  0.00000E+00    0.16986E+02  0.18041E+02 -0.35026E+02 -0.26723E+01  0.18377E+01  0.14007E+02      982.00
  0.20535E+00  0.58689E+02    0.11250E+00  0.11250E+00 -0.22500E+00  0.00000E+00  0.00000E+00  0.00000E+00    0.17120E+02  0.18128E+02 -0.35249E+02 -0.25456E+01  0.18286E+01  0.14360E+02      982.00
  0.22788E+00  0.59221E+02    0.12500E+00  0.12500E+00 -0.25000E+00  0.00000E+00  0.00000E+00  0.00000E+00    0.17242E+02  0.18229E+02 -0.35471E+02 -0.24534E+01  0.18086E+01  0.14693E+02      982.00
  0.25034E+00  0.59735E+02    0.13750E+00  0.13750E+00 -0.27500E+00  0.00000E+00  0.00000E+00  0.00000E+00    0.17356E+02  0.18331E+02 -0.35687E+02 -0.23794E+01  0.17841E+01  0.15005E+02      982.00
  0.27274E+00  0.60205E+02    0.15000E+00  0.15000E+00 -0.30000E+00  0.00000E+00  0.00000E+00  0.00000E+00    0.17461E+02  0.18426E+02 -0.35887E+02 -0.23245E+01  0.17566E+01  0.15284E+02      982.00
  0.29509E+00  0.60668E+02    0.16250E+00  0.16250E+00 -0.32500E+00  0.00000E+00  0.00000E+00  0.00000E+00    0.17566E+02  0.18518E+02 -0.36084E+02 -0.22779E+01  0.17290E+01  0.15554E+02      982.00
  0.31740E+00  0.61086E+02    0.17500E+00  0.17500E+00 -0.35000E+00  0.00000E+00  0.00000E+00  0.00000E+00    0.17664E+02  0.18597E+02 -0.36261E+02 -0.22304E+01  0.17022E+01  0.15800E+02      982.00
  0.33966E+00  0.61489E+02    0.18750E+00  0.18750E+00 -0.37500E+00  0.00000E+00  0.00000E+00  0.00000E+00    0.17762E+02  0.18671E+02 -0.36433E+02 -0.22032E+01  0.16765E+01  0.16028E+02      982.00
  0.36188E+00  0.61862E+02    0.20000E+00  0.20000E+00 -0.40000E+00  0.00000E+00  0.00000E+00  0.00000E+00    0.17859E+02  0.18731E+02 -0.36590E+02 -0.21704E+01  0.16513E+01  0.16244E+02      982.00
  0.38406E+00  0.62204E+02    0.21250E+00  0.21250E+00 -0.42500E+00  0.00000E+00  0.00000E+00  0.00000E+00    0.17954E+02  0.18784E+02 -0.36737E+02 -0.21546E+01  0.16313E+01  0.16434E+02      982.00
  0.40620E+00  0.62539E+02    0.22500E+00  0.22500E+00 -0.45000E+00  0.00000E+00  0.00000E+00  0.00000E+00    0.18054E+02  0.18824E+02 -0.36878E+02 -0.21312E+01  0.16100E+01  0.16626E+02      982.00
  0.42832E+00  0.62822E+02    0.23750E+00  0.23750E+00 -0.47500E+00  0.00000E+00  0.00000E+00  0.00000E+00    0.18144E+02  0.18856E+02 -0.36999E+02 -0.21193E+01  0.15977E+01  0.16782E+02      982.00
  0.45040E+00  0.63058E+02    0.25000E+00  0.25000E+00 -0.50000E+00  0.00000E+00  0.00000E+00  0.00000E+00    0.18219E+02  0.18888E+02 -0.37107E+02 -0.21300E+01  0.15920E+01  0.16899E+02      982.00
  0.47247E+00  0.63300E+02    0.26250E+00  0.26250E+00 -0.52500E+00  0.00000E+00  0.00000E+00  0.00000E+00    0.18305E+02  0.18905E+02 -0.37211E+02 -0.21207E+01  0.15843E+01  0.17031E+02      982.00
  0.49451E+00  0.63522E+02    0.27500E+00  0.27500E+00 -0.55000E+00  0.00000E+00  0.00000E+00  0.00000E+00    0.18391E+02  0.18915E+02 -0.37306E+02 -0.21123E+01  0.15795E+01  0.17152E+02      982.00
  0.51654E+00  0.63699E+02    0.28750E+00  0.28750E+00 -0.57500E+00  0.00000E+00  0.00000E+00  0.00000E+00    0.18472E+02  0.18909E+02 -0.37381E+02 -0.20989E+01  0.15762E+01  0.17250E+02      982.00
  0.53854E+00  0.63886E+02    0.30000E+00  0.30000E+00 -0.60000E+00  0.00000E+00  0.00000E+00  0.00000E+00    0.18556E+02  0.18907E+02 -0.37463E+02 -0.20931E+01  0.15754E+01  0.17349E+02      982.00
  0.56053E+00  0.64052E+02    0.31250E+00  0.31250E+00 -0.62500E+00  0.00000E+00  0.00000E+00  0.00000E+00    0.18636E+02  0.18901E+02 -0.37537E+02 -0.20900E+01  0.15751E+01  0.17433E+02      982.00
  0.58251E+00  0.64208E+02    0.32500E+00  0.32500E+00 -0.65000E+00  0.00000E+00  0.00000E+00  0.00000E+00    0.18717E+02  0.18890E+02 -0.37606E+02 -0.20859E+01  0.15756E+01  0.17513E+02      982.00
  0.60447E+00  0.64351E+02    0.33750E+00  0.33750E+00 -0.67500E+00  0.00000E+00  0.00000E+00  0.00000E+00    0.18796E+02  0.18874E+02 -0.37670E+02 -0.20827E+01  0.15768E+01  0.17586E+02      982.00
  0.62643E+00  0.64482E+02    0.35000E+00  0.35000E+00 -0.70000E+00  0.00000E+00  0.00000E+00  0.00000E+00    0.18873E+02  0.18856E+02 -0.37729E+02 -0.20805E+01  0.15782E+01  0.17652E+02      982.00
  0.64837E+00  0.64567E+02    0.36250E+00  0.36250E+00 -0.72500E+00  0.00000E+00  0.00000E+00  0.00000E+00    0.18945E+02  0.18821E+02 -0.37766E+02 -0.20749E+01  0.15793E+01  0.17696E+02      982.00
  0.67030E+00  0.64682E+02    0.37500E+00  0.37500E+00 -0.75000E+00  0.00000E+00  0.00000E+00  0.00000E+00    0.19020E+02  0.18799E+02 -0.37819E+02 -0.20750E+01  0.15810E+01  0.17751E+02      982.00
  0.69223E+00  0.64784E+02    0.38750E+00  0.38750E+00 -0.77500E+00  0.00000E+00  0.00000E+00  0.00000E+00    0.19092E+02  0.18774E+02 -0.37866E+02 -0.20757E+01  0.15822E+01  0.17798E+02      982.00
  0.71415E+00  0.64877E+02    0.40000E+00  0.40000E+00 -0.80000E+00  0.00000E+00  0.00000E+00  0.00000E+00    0.19162E+02  0.18748E+02 -0.37910E+02 -0.20771E+01  0.15832E+01  0.17840E+02      982.00
  0.73606E+00  0.64952E+02    0.41250E+00  0.41250E+00 -0.82500E+00  0.00000E+00  0.00000E+00  0.00000E+00    0.19240E+02  0.18705E+02 -0.37945E+02 -0.20770E+01  0.15839E+01  0.17875E+02      982.00
  0.75797E+00  0.65036E+02    0.42500E+00  0.42500E+00 -0.85000E+00  0.00000E+00  0.00000E+00  0.00000E+00    0.19307E+02  0.18678E+02 -0.37985E+02 -0.20797E+01  0.15851E+01  0.17911E+02      982.00
  0.77987E+00  0.65109E+02    0.43750E+00  0.43750E+00 -0.87500E+00  0.00000E+00  0.00000E+00  0.00000E+00    0.19371E+02  0.18650E+02 -0.38021E+02 -0.20828E+01  0.15856E+01  0.17941E+02      982.00
  0.80177E+00  0.65190E+02    0.45000E+00  0.45000E+00 -0.90000E+00  0.00000E+00  0.00000E+00  0.00000E+00    0.19460E+02  0.18599E+02 -0.38059E+02 -0.20857E+01  0.15855E+01  0.17976E+02      982.00
  0.82366E+00  0.65252E+02    0.46250E+00  0.46250E+00 -0.92500E+00  0.00000E+00  0.00000E+00  0.00000E+00    0.19521E+02  0.18570E+02 -0.38091E+02 -0.20893E+01  0.15861E+01  0.18000E+02      982.00
  0.84555E+00  0.65307E+02    0.47500E+00  0.47500E+00 -0.95000E+00  0.00000E+00  0.00000E+00  0.00000E+00    0.19578E+02  0.18541E+02 -0.38119E+02 -0.20931E+01  0.15864E+01  0.18021E+02      982.00
  0.86744E+00  0.65312E+02    0.48750E+00  0.48750E+00 -0.97500E+00  0.00000E+00  0.00000E+00  0.00000E+00    0.19555E+02  0.18566E+02 -0.38121E+02 -0.20895E+01  0.15897E+01  0.18023E+02      982.00
  0.88933E+00  0.65335E+02    0.50000E+00  0.50000E+00 -0.10000E+01  0.00000E+00  0.00000E+00  0.00000E+00    0.19677E+02  0.18454E+02 -0.38132E+02 -0.20818E+01  0.15776E+01  0.18032E+02      982.00
