          Evm          Svm            E11          E22          E33          E23          E13          E12         SDEV11       SDEV22       SDEV33       SDEV23       SDEV13       SDEV12      TEMP
  0.00000E+00  0.59651E+02    0.00000E+00  0.00000E+00  0.00000E+00  0.00000E+00  0.00000E+00  0.00000E+00    0.15688E+02  0.22198E+02 -0.37885E+02  0.71833E+01 -0.38433E+01  0.57137E+01      982.00
  0.23817E-01  0.59846E+02    0.12500E-01  0.12500E-01 -0.25000E-01  0.00000E+00  0.00000E+00  0.00000E+00    0.16447E+02  0.21549E+02 -0.37996E+02  0.72188E+01 -0.40614E+01  0.59945E+01      982.00
  0.47626E-01  0.60206E+02    0.25000E-01  0.25000E-01 -0.50000E-01  0.00000E+00  0.00000E+00  0.00000E+00    0.17387E+02  0.20799E+02 -0.38186E+02  0.72128E+01 -0.43563E+01  0.63802E+01      982.00
  0.71410E-01  0.60622E+02    0.37500E-01  0.37500E-01 -0.75000E-01  0.00000E+00  0.00000E+00  0.00000E+00    0.18381E+02  0.20003E+02 -0.38384E+02  0.71508E+01 -0.46694E+01  0.68110E+01      982.00
  0.95155E-01  0.60978E+02    0.50000E-01  0.50000E-01 -0.10000E+00  0.00000E+00  0.00000E+00  0.00000E+00    0.19241E+02  0.19302E+02 -0.38543E+02  0.70370E+01 -0.48820E+01  0.72060E+01      982.00
  0.11886E+00  0.61253E+02    0.62500E-01  0.62500E-01 -0.12500E+00  0.00000E+00  0.00000E+00  0.00000E+00    0.19889E+02  0.18772E+02 -0.38661E+02  0.68936E+01 -0.49545E+01  0.75646E+01      982.00
  0.14253E+00  0.61473E+02    0.75000E-01  0.75000E-01 -0.15000E+00  0.00000E+00  0.00000E+00  0.00000E+00    0.20348E+02  0.18405E+02 -0.38753E+02  0.67397E+01 -0.49213E+01  0.79178E+01      982.00
  0.16617E+00  0.61666E+02    0.87500E-01  0.87500E-01 -0.17500E+00  0.00000E+00  0.00000E+00  0.00000E+00    0.20667E+02  0.18160E+02 -0.38827E+02  0.65870E+01 -0.48296E+01  0.82850E+01      982.00
  0.18978E+00  0.61852E+02    0.10000E+00  0.10000E+00 -0.20000E+00  0.00000E+00  0.00000E+00  0.00000E+00    0.20877E+02  0.18013E+02 -0.38890E+02  0.64444E+01 -0.47078E+01  0.86692E+01      982.00
  0.21336E+00  0.62044E+02    0.11250E+00  0.11250E+00 -0.22500E+00  0.00000E+00  0.00000E+00  0.00000E+00    0.21018E+02  0.17927E+02 -0.38945E+02  0.63086E+01 -0.45866E+01  0.90753E+01      982.00
  0.23690E+00  0.62240E+02    0.12500E+00  0.12500E+00 -0.25000E+00  0.00000E+00  0.00000E+00  0.00000E+00    0.21096E+02  0.17895E+02 -0.38991E+02  0.61867E+01 -0.44670E+01  0.95010E+01      982.00
  0.26039E+00  0.62444E+02    0.13750E+00  0.13750E+00 -0.27500E+00  0.00000E+00  0.00000E+00  0.00000E+00    0.21122E+02  0.17907E+02 -0.39029E+02  0.60864E+01 -0.43606E+01  0.99342E+01      982.00
  0.28383E+00  0.62658E+02    0.15000E+00  0.15000E+00 -0.30000E+00  0.00000E+00  0.00000E+00  0.00000E+00    0.21113E+02  0.17945E+02 -0.39058E+02  0.59982E+01 -0.42744E+01  0.10382E+02      982.00
  0.30720E+00  0.62877E+02    0.16250E+00  0.16250E+00 -0.32500E+00  0.00000E+00  0.00000E+00  0.00000E+00    0.21072E+02  0.18003E+02 -0.39075E+02  0.59186E+01 -0.42095E+01  0.10843E+02      982.00
  0.33051E+00  0.63098E+02    0.17500E+00  0.17500E+00 -0.35000E+00  0.00000E+00  0.00000E+00  0.00000E+00    0.21004E+02  0.18075E+02 -0.39079E+02  0.58521E+01 -0.41634E+01  0.11315E+02      982.00
  0.35373E+00  0.63324E+02    0.18750E+00  0.18750E+00 -0.37500E+00  0.00000E+00  0.00000E+00  0.00000E+00    0.20912E+02  0.18157E+02 -0.39068E+02  0.57847E+01 -0.41363E+01  0.11808E+02      982.00
  0.37687E+00  0.63550E+02    0.20000E+00  0.20000E+00 -0.40000E+00  0.00000E+00  0.00000E+00  0.00000E+00    0.20795E+02  0.18247E+02 -0.39042E+02  0.57133E+01 -0.41266E+01  0.12315E+02      982.00
  0.39991E+00  0.63767E+02    0.21250E+00  0.21250E+00 -0.42500E+00  0.00000E+00  0.00000E+00  0.00000E+00    0.20648E+02  0.18349E+02 -0.38997E+02  0.56365E+01 -0.41315E+01  0.12832E+02      982.00
  0.42284E+00  0.63981E+02    0.22500E+00  0.22500E+00 -0.45000E+00  0.00000E+00  0.00000E+00  0.00000E+00    0.20480E+02  0.18454E+02 -0.38934E+02  0.55530E+01 -0.41473E+01  0.13363E+02      982.00
  0.44566E+00  0.64191E+02    0.23750E+00  0.23750E+00 -0.47500E+00  0.00000E+00  0.00000E+00  0.00000E+00    0.20296E+02  0.18557E+02 -0.38853E+02  0.54607E+01 -0.41709E+01  0.13905E+02      982.00
  0.46836E+00  0.64397E+02    0.25000E+00  0.25000E+00 -0.50000E+00  0.00000E+00  0.00000E+00  0.00000E+00    0.20104E+02  0.18651E+02 -0.38756E+02  0.53578E+01 -0.41982E+01  0.14456E+02      982.00
  0.49092E+00  0.64600E+02    0.26250E+00  0.26250E+00 -0.52500E+00  0.00000E+00  0.00000E+00  0.00000E+00    0.19913E+02  0.18728E+02 -0.38642E+02  0.52427E+01 -0.42249E+01  0.15015E+02      982.00
  0.51336E+00  0.64792E+02    0.27500E+00  0.27500E+00 -0.55000E+00  0.00000E+00  0.00000E+00  0.00000E+00    0.19725E+02  0.18787E+02 -0.38512E+02  0.51142E+01 -0.42477E+01  0.15575E+02      982.00
  0.53565E+00  0.64977E+02    0.28750E+00  0.28750E+00 -0.57500E+00  0.00000E+00  0.00000E+00  0.00000E+00    0.19558E+02  0.18811E+02 -0.38369E+02  0.49671E+01 -0.42619E+01  0.16132E+02      982.00
  0.55779E+00  0.65152E+02    0.30000E+00  0.30000E+00 -0.60000E+00  0.00000E+00  0.00000E+00  0.00000E+00    0.19424E+02  0.18792E+02 -0.38216E+02  0.47965E+01 -0.42629E+01  0.16683E+02      982.00
  0.57979E+00  0.65322E+02    0.31250E+00  0.31250E+00 -0.62500E+00  0.00000E+00  0.00000E+00  0.00000E+00    0.19331E+02  0.18724E+02 -0.38055E+02  0.46176E+01 -0.42437E+01  0.17227E+02      982.00
  0.60163E+00  0.65481E+02    0.32500E+00  0.32500E+00 -0.65000E+00  0.00000E+00  0.00000E+00  0.00000E+00    0.19275E+02  0.18614E+02 -0.37889E+02  0.44189E+01 -0.42032E+01  0.17755E+02      982.00
  0.62333E+00  0.65636E+02    0.33750E+00  0.33750E+00 -0.67500E+00  0.00000E+00  0.00000E+00  0.00000E+00    0.19247E+02  0.18476E+02 -0.37723E+02  0.42124E+01 -0.41370E+01  0.18268E+02      982.00
  0.64488E+00  0.65771E+02    0.35000E+00  0.35000E+00 -0.70000E+00  0.00000E+00  0.00000E+00  0.00000E+00    0.19250E+02  0.18310E+02 -0.37559E+02  0.39760E+01 -0.40440E+01  0.18748E+02      982.00
  0.66630E+00  0.65890E+02    0.36250E+00  0.36250E+00 -0.72500E+00  0.00000E+00  0.00000E+00  0.00000E+00    0.19276E+02  0.18125E+02 -0.37401E+02  0.37237E+01 -0.39250E+01  0.19195E+02      982.00
  0.68758E+00  0.65994E+02    0.37500E+00  0.37500E+00 -0.75000E+00  0.00000E+00  0.00000E+00  0.00000E+00    0.19332E+02  0.17919E+02 -0.37250E+02  0.34486E+01 -0.37807E+01  0.19605E+02      982.00
  0.70875E+00  0.66085E+02    0.38750E+00  0.38750E+00 -0.77500E+00  0.00000E+00  0.00000E+00  0.00000E+00    0.19406E+02  0.17706E+02 -0.37113E+02  0.31567E+01 -0.36102E+01  0.19976E+02      982.00
  0.72981E+00  0.66162E+02    0.40000E+00  0.40000E+00 -0.80000E+00  0.00000E+00  0.00000E+00  0.00000E+00    0.19496E+02  0.17493E+02 -0.36989E+02  0.28477E+01 -0.34130E+01  0.20303E+02      982.00
  0.75078E+00  0.66232E+02    0.41250E+00  0.41250E+00 -0.82500E+00  0.00000E+00  0.00000E+00  0.00000E+00    0.19587E+02  0.17299E+02 -0.36886E+02  0.25364E+01 -0.31962E+01  0.20588E+02      982.00
  0.77166E+00  0.66289E+02    0.42500E+00  0.42500E+00 -0.85000E+00  0.00000E+00  0.00000E+00  0.00000E+00    0.19690E+02  0.17111E+02 -0.36800E+02  0.22082E+01 -0.29565E+01  0.20827E+02      982.00
  0.79248E+00  0.66336E+02    0.43750E+00  0.43750E+00 -0.87500E+00  0.00000E+00  0.00000E+00  0.00000E+00    0.19796E+02  0.16940E+02 -0.36735E+02  0.18720E+01 -0.26974E+01  0.21021E+02      982.00
  0.81325E+00  0.66376E+02    0.45000E+00  0.45000E+00 -0.90000E+00  0.00000E+00  0.00000E+00  0.00000E+00    0.19900E+02  0.16791E+02 -0.36692E+02  0.15365E+01 -0.24249E+01  0.21172E+02      982.00
  0.83397E+00  0.66409E+02    0.46250E+00  0.46250E+00 -0.92500E+00  0.00000E+00  0.00000E+00  0.00000E+00    0.20005E+02  0.16663E+02 -0.36669E+02  0.11999E+01 -0.21407E+01  0.21280E+02      982.00
  0.85468E+00  0.66437E+02    0.47500E+00  0.47500E+00 -0.95000E+00  0.00000E+00  0.00000E+00  0.00000E+00    0.20110E+02  0.16556E+02 -0.36666E+02  0.86252E+00 -0.18456E+01  0.21346E+02      982.00
  0.87538E+00  0.66457E+02    0.48750E+00  0.48750E+00 -0.97500E+00  0.00000E+00  0.00000E+00  0.00000E+00    0.20214E+02  0.16470E+02 -0.36684E+02  0.52153E+00 -0.15379E+01  0.21371E+02      982.00
  0.89608E+00  0.66476E+02    0.50000E+00  0.50000E+00 -0.10000E+01  0.00000E+00  0.00000E+00  0.00000E+00    0.20317E+02  0.16405E+02 -0.36722E+02  0.19136E+00 -0.12301E+01  0.21361E+02      982.00
