          Evm          Svm            E11          E22          E33          E23          E13          E12         SDEV11       SDEV22       SDEV33       SDEV23       SDEV13       SDEV12      TEMP
  0.00000E+00  0.53772E+02    0.00000E+00  0.00000E+00  0.00000E+00  0.00000E+00  0.00000E+00  0.00000E+00    0.20017E+02  0.12940E+02 -0.32957E+02 -0.23679E+01  0.43491E+01  0.10590E+02      982.00
  0.22984E-01  0.53658E+02    0.12500E-01  0.12500E-01 -0.25000E-01  0.00000E+00  0.00000E+00  0.00000E+00    0.19871E+02  0.13066E+02 -0.32937E+02 -0.25301E+01  0.39467E+01  0.10608E+02      982.00
  0.46003E-01  0.53615E+02    0.25000E-01  0.25000E-01 -0.50000E-01  0.00000E+00  0.00000E+00  0.00000E+00    0.19690E+02  0.13257E+02 -0.32947E+02 -0.26992E+01  0.35221E+01  0.10679E+02      982.00
  0.69046E-01  0.53662E+02    0.37500E-01  0.37500E-01 -0.75000E-01  0.00000E+00  0.00000E+00  0.00000E+00    0.19503E+02  0.13486E+02 -0.32989E+02 -0.28617E+01  0.31077E+01  0.10805E+02      982.00
  0.92100E-01  0.53805E+02    0.50000E-01  0.50000E-01 -0.10000E+00  0.00000E+00  0.00000E+00  0.00000E+00    0.19373E+02  0.13695E+02 -0.33068E+02 -0.30047E+01  0.27407E+01  0.10967E+02      982.00
  0.11515E+00  0.54052E+02    0.62500E-01  0.62500E-01 -0.12500E+00  0.00000E+00  0.00000E+00  0.00000E+00    0.19321E+02  0.13866E+02 -0.33186E+02 -0.31322E+01  0.24204E+01  0.11170E+02      982.00
  0.13817E+00  0.54408E+02    0.75000E-01  0.75000E-01 -0.15000E+00  0.00000E+00  0.00000E+00  0.00000E+00    0.19361E+02  0.13994E+02 -0.33355E+02 -0.32456E+01  0.21481E+01  0.11400E+02      982.00
  0.16116E+00  0.54825E+02    0.87500E-01  0.87500E-01 -0.17500E+00  0.00000E+00  0.00000E+00  0.00000E+00    0.19462E+02  0.14090E+02 -0.33552E+02 -0.33445E+01  0.19104E+01  0.11644E+02      982.00
  0.18411E+00  0.55286E+02    0.10000E+00  0.10000E+00 -0.20000E+00  0.00000E+00  0.00000E+00  0.00000E+00    0.19610E+02  0.14160E+02 -0.33771E+02 -0.34344E+01  0.17031E+01  0.11891E+02      982.00
  0.20702E+00  0.55754E+02    0.11250E+00  0.11250E+00 -0.22500E+00  0.00000E+00  0.00000E+00  0.00000E+00    0.19780E+02  0.14214E+02 -0.33994E+02 -0.35141E+01  0.15338E+01  0.12125E+02      982.00
  0.22988E+00  0.56230E+02    0.12500E+00  0.12500E+00 -0.25000E+00  0.00000E+00  0.00000E+00  0.00000E+00    0.19961E+02  0.14265E+02 -0.34226E+02 -0.35844E+01  0.13897E+01  0.12348E+02      982.00
  0.25271E+00  0.56686E+02    0.13750E+00  0.13750E+00 -0.27500E+00  0.00000E+00  0.00000E+00  0.00000E+00    0.20139E+02  0.14308E+02 -0.34447E+02 -0.36491E+01  0.12561E+01  0.12561E+02      982.00
  0.27549E+00  0.57132E+02    0.15000E+00  0.15000E+00 -0.30000E+00  0.00000E+00  0.00000E+00  0.00000E+00    0.20312E+02  0.14358E+02 -0.34670E+02 -0.37019E+01  0.11570E+01  0.12752E+02      982.00
  0.29825E+00  0.57551E+02    0.16250E+00  0.16250E+00 -0.32500E+00  0.00000E+00  0.00000E+00  0.00000E+00    0.20472E+02  0.14411E+02 -0.34883E+02 -0.37456E+01  0.10765E+01  0.12925E+02      982.00
  0.32098E+00  0.57951E+02    0.17500E+00  0.17500E+00 -0.35000E+00  0.00000E+00  0.00000E+00  0.00000E+00    0.20621E+02  0.14468E+02 -0.35089E+02 -0.37819E+01  0.10107E+01  0.13085E+02      982.00
  0.34369E+00  0.58318E+02    0.18750E+00  0.18750E+00 -0.37500E+00  0.00000E+00  0.00000E+00  0.00000E+00    0.20756E+02  0.14519E+02 -0.35275E+02 -0.38146E+01  0.94634E+00  0.13238E+02      982.00
  0.36637E+00  0.58662E+02    0.20000E+00  0.20000E+00 -0.40000E+00  0.00000E+00  0.00000E+00  0.00000E+00    0.20877E+02  0.14580E+02 -0.35457E+02 -0.38346E+01  0.90738E+00  0.13369E+02      982.00
  0.38903E+00  0.58980E+02    0.21250E+00  0.21250E+00 -0.42500E+00  0.00000E+00  0.00000E+00  0.00000E+00    0.20984E+02  0.14642E+02 -0.35626E+02 -0.38479E+01  0.87960E+00  0.13490E+02      982.00
  0.41169E+00  0.59293E+02    0.22500E+00  0.22500E+00 -0.45000E+00  0.00000E+00  0.00000E+00  0.00000E+00    0.21084E+02  0.14707E+02 -0.35791E+02 -0.38566E+01  0.85015E+00  0.13615E+02      982.00
  0.43432E+00  0.59565E+02    0.23750E+00  0.23750E+00 -0.47500E+00  0.00000E+00  0.00000E+00  0.00000E+00    0.21167E+02  0.14772E+02 -0.35939E+02 -0.38545E+01  0.84113E+00  0.13718E+02      982.00
  0.45695E+00  0.59822E+02    0.25000E+00  0.25000E+00 -0.50000E+00  0.00000E+00  0.00000E+00  0.00000E+00    0.21240E+02  0.14838E+02 -0.36078E+02 -0.38472E+01  0.84039E+00  0.13817E+02      982.00
  0.47956E+00  0.60084E+02    0.26250E+00  0.26250E+00 -0.52500E+00  0.00000E+00  0.00000E+00  0.00000E+00    0.21308E+02  0.14912E+02 -0.36219E+02 -0.38289E+01  0.84239E+00  0.13925E+02      982.00
  0.50217E+00  0.60312E+02    0.27500E+00  0.27500E+00 -0.55000E+00  0.00000E+00  0.00000E+00  0.00000E+00    0.21365E+02  0.14978E+02 -0.36343E+02 -0.38091E+01  0.85514E+00  0.14016E+02      982.00
  0.52477E+00  0.60527E+02    0.28750E+00  0.28750E+00 -0.57500E+00  0.00000E+00  0.00000E+00  0.00000E+00    0.21414E+02  0.15047E+02 -0.36461E+02 -0.37815E+01  0.87715E+00  0.14104E+02      982.00
  0.54736E+00  0.60728E+02    0.30000E+00  0.30000E+00 -0.60000E+00  0.00000E+00  0.00000E+00  0.00000E+00    0.21457E+02  0.15113E+02 -0.36570E+02 -0.37472E+01  0.90558E+00  0.14189E+02      982.00
  0.56994E+00  0.60915E+02    0.31250E+00  0.31250E+00 -0.62500E+00  0.00000E+00  0.00000E+00  0.00000E+00    0.21493E+02  0.15178E+02 -0.36672E+02 -0.37085E+01  0.94093E+00  0.14272E+02      982.00
  0.59251E+00  0.61089E+02    0.32500E+00  0.32500E+00 -0.65000E+00  0.00000E+00  0.00000E+00  0.00000E+00    0.21531E+02  0.15235E+02 -0.36766E+02 -0.36766E+01  0.97534E+00  0.14346E+02      982.00
  0.61508E+00  0.61265E+02    0.33750E+00  0.33750E+00 -0.67500E+00  0.00000E+00  0.00000E+00  0.00000E+00    0.21559E+02  0.15297E+02 -0.36857E+02 -0.36289E+01  0.10192E+01  0.14433E+02      982.00
  0.63764E+00  0.61439E+02    0.35000E+00  0.35000E+00 -0.70000E+00  0.00000E+00  0.00000E+00  0.00000E+00    0.21584E+02  0.15362E+02 -0.36946E+02 -0.35756E+01  0.10705E+01  0.14521E+02      982.00
  0.66019E+00  0.61607E+02    0.36250E+00  0.36250E+00 -0.72500E+00  0.00000E+00  0.00000E+00  0.00000E+00    0.21612E+02  0.15418E+02 -0.37030E+02 -0.35265E+01  0.11209E+01  0.14609E+02      982.00
  0.68273E+00  0.61773E+02    0.37500E+00  0.37500E+00 -0.75000E+00  0.00000E+00  0.00000E+00  0.00000E+00    0.21630E+02  0.15481E+02 -0.37111E+02 -0.34629E+01  0.11828E+01  0.14703E+02      982.00
  0.70526E+00  0.61945E+02    0.38750E+00  0.38750E+00 -0.77500E+00  0.00000E+00  0.00000E+00  0.00000E+00    0.21649E+02  0.15542E+02 -0.37192E+02 -0.34012E+01  0.12463E+01  0.14805E+02      982.00
  0.72778E+00  0.62105E+02    0.40000E+00  0.40000E+00 -0.80000E+00  0.00000E+00  0.00000E+00  0.00000E+00    0.21659E+02  0.15606E+02 -0.37266E+02 -0.33285E+01  0.13192E+01  0.14905E+02      982.00
  0.75028E+00  0.62268E+02    0.41250E+00  0.41250E+00 -0.82500E+00  0.00000E+00  0.00000E+00  0.00000E+00    0.21667E+02  0.15672E+02 -0.37339E+02 -0.32514E+01  0.13975E+01  0.15009E+02      982.00
  0.77277E+00  0.62437E+02    0.42500E+00  0.42500E+00 -0.85000E+00  0.00000E+00  0.00000E+00  0.00000E+00    0.21672E+02  0.15738E+02 -0.37411E+02 -0.31739E+01  0.14770E+01  0.15124E+02      982.00
  0.79523E+00  0.62595E+02    0.43750E+00  0.43750E+00 -0.87500E+00  0.00000E+00  0.00000E+00  0.00000E+00    0.21671E+02  0.15806E+02 -0.37476E+02 -0.30874E+01  0.15655E+01  0.15235E+02      982.00
  0.81769E+00  0.62753E+02    0.45000E+00  0.45000E+00 -0.90000E+00  0.00000E+00  0.00000E+00  0.00000E+00    0.21666E+02  0.15874E+02 -0.37540E+02 -0.29981E+01  0.16590E+01  0.15349E+02      982.00
  0.84012E+00  0.62911E+02    0.46250E+00  0.46250E+00 -0.92500E+00  0.00000E+00  0.00000E+00  0.00000E+00    0.21650E+02  0.15947E+02 -0.37597E+02 -0.29113E+01  0.17501E+01  0.15473E+02      982.00
  0.86253E+00  0.63018E+02    0.47500E+00  0.47500E+00 -0.95000E+00  0.00000E+00  0.00000E+00  0.00000E+00    0.21616E+02  0.16012E+02 -0.37628E+02 -0.28080E+01  0.18448E+01  0.15580E+02      982.00
  0.88492E+00  0.63127E+02    0.48750E+00  0.48750E+00 -0.97500E+00  0.00000E+00  0.00000E+00  0.00000E+00    0.21577E+02  0.16080E+02 -0.37657E+02 -0.27071E+01  0.19396E+01  0.15689E+02      982.00
  0.90729E+00  0.63236E+02    0.50000E+00  0.50000E+00 -0.10000E+01  0.00000E+00  0.00000E+00  0.00000E+00    0.21525E+02  0.16156E+02 -0.37681E+02 -0.26145E+01  0.20265E+01  0.15808E+02      982.00
