          Evm          Svm            E11          E22          E33          E23          E13          E12         SDEV11       SDEV22       SDEV33       SDEV23       SDEV13       SDEV12      TEMP
  0.00000E+00  0.57058E+02    0.00000E+00  0.00000E+00  0.00000E+00  0.00000E+00  0.00000E+00  0.00000E+00    0.16111E+02  0.18181E+02 -0.34292E+02 -0.40797E+01  0.18903E+01  0.13489E+02      982.00
  0.22538E-01  0.57078E+02    0.12500E-01  0.12500E-01 -0.25000E-01  0.00000E+00  0.00000E+00  0.00000E+00    0.16371E+02  0.17919E+02 -0.34290E+02 -0.37956E+01  0.20163E+01  0.13603E+02      982.00
  0.45066E-01  0.57210E+02    0.25000E-01  0.25000E-01 -0.50000E-01  0.00000E+00  0.00000E+00  0.00000E+00    0.16570E+02  0.17761E+02 -0.34331E+02 -0.35781E+01  0.20809E+01  0.13767E+02      982.00
  0.67570E-01  0.57434E+02    0.37500E-01  0.37500E-01 -0.75000E-01  0.00000E+00  0.00000E+00  0.00000E+00    0.16738E+02  0.17672E+02 -0.34409E+02 -0.33905E+01  0.21167E+01  0.13977E+02      982.00
  0.90036E-01  0.57734E+02    0.50000E-01  0.50000E-01 -0.10000E+00  0.00000E+00  0.00000E+00  0.00000E+00    0.16882E+02  0.17638E+02 -0.34520E+02 -0.32273E+01  0.21309E+01  0.14222E+02      982.00
  0.11246E+00  0.58094E+02    0.62500E-01  0.62500E-01 -0.12500E+00  0.00000E+00  0.00000E+00  0.00000E+00    0.17011E+02  0.17647E+02 -0.34658E+02 -0.30812E+01  0.21290E+01  0.14491E+02      982.00
  0.13483E+00  0.58498E+02    0.75000E-01  0.75000E-01 -0.15000E+00  0.00000E+00  0.00000E+00  0.00000E+00    0.17127E+02  0.17691E+02 -0.34818E+02 -0.29517E+01  0.21126E+01  0.14772E+02      982.00
  0.15715E+00  0.58910E+02    0.87500E-01  0.87500E-01 -0.17500E+00  0.00000E+00  0.00000E+00  0.00000E+00    0.17230E+02  0.17755E+02 -0.34985E+02 -0.28379E+01  0.20861E+01  0.15045E+02      982.00
  0.17942E+00  0.59357E+02    0.10000E+00  0.10000E+00 -0.20000E+00  0.00000E+00  0.00000E+00  0.00000E+00    0.17330E+02  0.17838E+02 -0.35169E+02 -0.27413E+01  0.20513E+01  0.15330E+02      982.00
  0.20164E+00  0.59808E+02    0.11250E+00  0.11250E+00 -0.22500E+00  0.00000E+00  0.00000E+00  0.00000E+00    0.17428E+02  0.17930E+02 -0.35358E+02 -0.26570E+01  0.20147E+01  0.15605E+02      982.00
  0.22381E+00  0.60241E+02    0.12500E+00  0.12500E+00 -0.25000E+00  0.00000E+00  0.00000E+00  0.00000E+00    0.17521E+02  0.18021E+02 -0.35543E+02 -0.25755E+01  0.19769E+01  0.15862E+02      982.00
  0.24593E+00  0.60672E+02    0.13750E+00  0.13750E+00 -0.27500E+00  0.00000E+00  0.00000E+00  0.00000E+00    0.17614E+02  0.18113E+02 -0.35727E+02 -0.25010E+01  0.19371E+01  0.16112E+02      982.00
  0.26802E+00  0.61079E+02    0.15000E+00  0.15000E+00 -0.30000E+00  0.00000E+00  0.00000E+00  0.00000E+00    0.17707E+02  0.18202E+02 -0.35909E+02 -0.24491E+01  0.19049E+01  0.16333E+02      982.00
  0.29006E+00  0.61462E+02    0.16250E+00  0.16250E+00 -0.32500E+00  0.00000E+00  0.00000E+00  0.00000E+00    0.17798E+02  0.18285E+02 -0.36083E+02 -0.24052E+01  0.18753E+01  0.16533E+02      982.00
  0.31208E+00  0.61836E+02    0.17500E+00  0.17500E+00 -0.35000E+00  0.00000E+00  0.00000E+00  0.00000E+00    0.17890E+02  0.18362E+02 -0.36252E+02 -0.23551E+01  0.18408E+01  0.16731E+02      982.00
  0.33406E+00  0.62164E+02    0.18750E+00  0.18750E+00 -0.37500E+00  0.00000E+00  0.00000E+00  0.00000E+00    0.17978E+02  0.18430E+02 -0.36408E+02 -0.23243E+01  0.18177E+01  0.16889E+02      982.00
  0.35602E+00  0.62467E+02    0.20000E+00  0.20000E+00 -0.40000E+00  0.00000E+00  0.00000E+00  0.00000E+00    0.18064E+02  0.18490E+02 -0.36554E+02 -0.22987E+01  0.17974E+01  0.17030E+02      982.00
  0.37797E+00  0.62745E+02    0.21250E+00  0.21250E+00 -0.42500E+00  0.00000E+00  0.00000E+00  0.00000E+00    0.18147E+02  0.18543E+02 -0.36690E+02 -0.22768E+01  0.17795E+01  0.17154E+02      982.00
  0.39990E+00  0.62994E+02    0.22500E+00  0.22500E+00 -0.45000E+00  0.00000E+00  0.00000E+00  0.00000E+00    0.18227E+02  0.18583E+02 -0.36810E+02 -0.22510E+01  0.17585E+01  0.17273E+02      982.00
  0.42181E+00  0.63231E+02    0.23750E+00  0.23750E+00 -0.47500E+00  0.00000E+00  0.00000E+00  0.00000E+00    0.18305E+02  0.18629E+02 -0.36935E+02 -0.22411E+01  0.17494E+01  0.17363E+02      982.00
  0.44371E+00  0.63436E+02    0.25000E+00  0.25000E+00 -0.50000E+00  0.00000E+00  0.00000E+00  0.00000E+00    0.18380E+02  0.18656E+02 -0.37036E+02 -0.22219E+01  0.17329E+01  0.17455E+02      982.00
  0.46561E+00  0.63631E+02    0.26250E+00  0.26250E+00 -0.52500E+00  0.00000E+00  0.00000E+00  0.00000E+00    0.18454E+02  0.18685E+02 -0.37139E+02 -0.22104E+01  0.17225E+01  0.17530E+02      982.00
  0.48750E+00  0.63808E+02    0.27500E+00  0.27500E+00 -0.55000E+00  0.00000E+00  0.00000E+00  0.00000E+00    0.18525E+02  0.18708E+02 -0.37233E+02 -0.22004E+01  0.17133E+01  0.17597E+02      982.00
  0.50938E+00  0.63971E+02    0.28750E+00  0.28750E+00 -0.57500E+00  0.00000E+00  0.00000E+00  0.00000E+00    0.18593E+02  0.18728E+02 -0.37321E+02 -0.21916E+01  0.17051E+01  0.17656E+02      982.00
  0.53125E+00  0.64120E+02    0.30000E+00  0.30000E+00 -0.60000E+00  0.00000E+00  0.00000E+00  0.00000E+00    0.18658E+02  0.18743E+02 -0.37402E+02 -0.21839E+01  0.16979E+01  0.17709E+02      982.00
  0.55313E+00  0.64256E+02    0.31250E+00  0.31250E+00 -0.62500E+00  0.00000E+00  0.00000E+00  0.00000E+00    0.18722E+02  0.18756E+02 -0.37477E+02 -0.21771E+01  0.16914E+01  0.17756E+02      982.00
  0.57500E+00  0.64382E+02    0.32500E+00  0.32500E+00 -0.65000E+00  0.00000E+00  0.00000E+00  0.00000E+00    0.18782E+02  0.18765E+02 -0.37547E+02 -0.21710E+01  0.16856E+01  0.17799E+02      982.00
  0.59687E+00  0.64498E+02    0.33750E+00  0.33750E+00 -0.67500E+00  0.00000E+00  0.00000E+00  0.00000E+00    0.18841E+02  0.18771E+02 -0.37612E+02 -0.21657E+01  0.16804E+01  0.17837E+02      982.00
  0.61874E+00  0.64604E+02    0.35000E+00  0.35000E+00 -0.70000E+00  0.00000E+00  0.00000E+00  0.00000E+00    0.18897E+02  0.18775E+02 -0.37672E+02 -0.21609E+01  0.16758E+01  0.17871E+02      982.00
  0.64061E+00  0.64723E+02    0.36250E+00  0.36250E+00 -0.72500E+00  0.00000E+00  0.00000E+00  0.00000E+00    0.18970E+02  0.18768E+02 -0.37738E+02 -0.21520E+01  0.16676E+01  0.17911E+02      982.00
  0.66247E+00  0.64784E+02    0.37500E+00  0.37500E+00 -0.75000E+00  0.00000E+00  0.00000E+00  0.00000E+00    0.19011E+02  0.18761E+02 -0.37773E+02 -0.21506E+01  0.16666E+01  0.17931E+02      982.00
  0.68433E+00  0.64871E+02    0.38750E+00  0.38750E+00 -0.77500E+00  0.00000E+00  0.00000E+00  0.00000E+00    0.19062E+02  0.18761E+02 -0.37823E+02 -0.21481E+01  0.16641E+01  0.17956E+02      982.00
  0.70620E+00  0.64948E+02    0.40000E+00  0.40000E+00 -0.80000E+00  0.00000E+00  0.00000E+00  0.00000E+00    0.19111E+02  0.18757E+02 -0.37868E+02 -0.21453E+01  0.16613E+01  0.17978E+02      982.00
  0.72806E+00  0.65020E+02    0.41250E+00  0.41250E+00 -0.82500E+00  0.00000E+00  0.00000E+00  0.00000E+00    0.19158E+02  0.18752E+02 -0.37910E+02 -0.21428E+01  0.16587E+01  0.17998E+02      982.00
  0.74993E+00  0.65087E+02    0.42500E+00  0.42500E+00 -0.85000E+00  0.00000E+00  0.00000E+00  0.00000E+00    0.19203E+02  0.18746E+02 -0.37949E+02 -0.21407E+01  0.16564E+01  0.18017E+02      982.00
  0.77179E+00  0.65149E+02    0.43750E+00  0.43750E+00 -0.87500E+00  0.00000E+00  0.00000E+00  0.00000E+00    0.19247E+02  0.18739E+02 -0.37986E+02 -0.21389E+01  0.16544E+01  0.18034E+02      982.00
  0.79366E+00  0.65207E+02    0.45000E+00  0.45000E+00 -0.90000E+00  0.00000E+00  0.00000E+00  0.00000E+00    0.19289E+02  0.18731E+02 -0.38020E+02 -0.21374E+01  0.16526E+01  0.18050E+02      982.00
  0.81552E+00  0.65262E+02    0.46250E+00  0.46250E+00 -0.92500E+00  0.00000E+00  0.00000E+00  0.00000E+00    0.19331E+02  0.18722E+02 -0.38052E+02 -0.21362E+01  0.16510E+01  0.18065E+02      982.00
  0.83739E+00  0.65313E+02    0.47500E+00  0.47500E+00 -0.95000E+00  0.00000E+00  0.00000E+00  0.00000E+00    0.19371E+02  0.18712E+02 -0.38082E+02 -0.21353E+01  0.16496E+01  0.18079E+02      982.00
  0.85925E+00  0.65361E+02    0.48750E+00  0.48750E+00 -0.97500E+00  0.00000E+00  0.00000E+00  0.00000E+00    0.19409E+02  0.18701E+02 -0.38110E+02 -0.21346E+01  0.16484E+01  0.18091E+02      982.00
  0.88112E+00  0.65368E+02    0.50000E+00  0.50000E+00 -0.10000E+01  0.00000E+00  0.00000E+00  0.00000E+00    0.19398E+02  0.18716E+02 -0.38114E+02 -0.21343E+01  0.16513E+01  0.18096E+02      982.00
