          Evm          Svm            E11          E22          E33          E23          E13          E12         SDEV11       SDEV22       SDEV33       SDEV23       SDEV13       SDEV12      TEMP
  0.00000E+00  0.58598E+02    0.00000E+00  0.00000E+00  0.00000E+00  0.00000E+00  0.00000E+00  0.00000E+00    0.15526E+02  0.17444E+02 -0.32971E+02  0.16411E+01 -0.29823E+01  0.17799E+02      982.00
  0.21099E-01  0.58599E+02    0.12500E-01  0.12500E-01 -0.25000E-01  0.00000E+00  0.00000E+00  0.00000E+00    0.15571E+02  0.17385E+02 -0.32956E+02  0.93945E+00 -0.23111E+01  0.17972E+02      982.00
  0.42189E-01  0.58626E+02    0.25000E-01  0.25000E-01 -0.50000E-01  0.00000E+00  0.00000E+00  0.00000E+00    0.15634E+02  0.17335E+02 -0.32970E+02  0.32396E+00 -0.16821E+01  0.18076E+02      982.00
  0.63279E-01  0.58683E+02    0.37500E-01  0.37500E-01 -0.75000E-01  0.00000E+00  0.00000E+00  0.00000E+00    0.15708E+02  0.17303E+02 -0.33011E+02 -0.22440E+00 -0.11055E+01  0.18130E+02      982.00
  0.84373E-01  0.58771E+02    0.50000E-01  0.50000E-01 -0.10000E+00  0.00000E+00  0.00000E+00  0.00000E+00    0.15791E+02  0.17286E+02 -0.33077E+02 -0.70291E+00 -0.58990E+00  0.18148E+02      982.00
  0.10548E+00  0.58903E+02    0.62500E-01  0.62500E-01 -0.12500E+00  0.00000E+00  0.00000E+00  0.00000E+00    0.15880E+02  0.17289E+02 -0.33169E+02 -0.11061E+01 -0.14672E+00  0.18155E+02      982.00
  0.12660E+00  0.59081E+02    0.75000E-01  0.75000E-01 -0.15000E+00  0.00000E+00  0.00000E+00  0.00000E+00    0.15974E+02  0.17314E+02 -0.33288E+02 -0.14332E+01  0.21714E+00  0.18163E+02      982.00
  0.14772E+00  0.59303E+02    0.87500E-01  0.87500E-01 -0.17500E+00  0.00000E+00  0.00000E+00  0.00000E+00    0.16074E+02  0.17356E+02 -0.33430E+02 -0.17053E+01  0.52462E+00  0.18180E+02      982.00
  0.16886E+00  0.59566E+02    0.10000E+00  0.10000E+00 -0.20000E+00  0.00000E+00  0.00000E+00  0.00000E+00    0.16178E+02  0.17416E+02 -0.33594E+02 -0.19233E+01  0.77540E+00  0.18210E+02      982.00
  0.19001E+00  0.59855E+02    0.11250E+00  0.11250E+00 -0.22500E+00  0.00000E+00  0.00000E+00  0.00000E+00    0.16286E+02  0.17488E+02 -0.33773E+02 -0.21010E+01  0.98307E+00  0.18248E+02      982.00
  0.21117E+00  0.60160E+02    0.12500E+00  0.12500E+00 -0.25000E+00  0.00000E+00  0.00000E+00  0.00000E+00    0.16395E+02  0.17570E+02 -0.33965E+02 -0.22436E+01  0.11537E+01  0.18290E+02      982.00
  0.23234E+00  0.60490E+02    0.13750E+00  0.13750E+00 -0.27500E+00  0.00000E+00  0.00000E+00  0.00000E+00    0.16505E+02  0.17661E+02 -0.34166E+02 -0.23544E+01  0.12871E+01  0.18348E+02      982.00
  0.25353E+00  0.60811E+02    0.15000E+00  0.15000E+00 -0.30000E+00  0.00000E+00  0.00000E+00  0.00000E+00    0.16616E+02  0.17753E+02 -0.34369E+02 -0.24460E+01  0.14042E+01  0.18397E+02      982.00
  0.27472E+00  0.61155E+02    0.16250E+00  0.16250E+00 -0.32500E+00  0.00000E+00  0.00000E+00  0.00000E+00    0.16731E+02  0.17851E+02 -0.34582E+02 -0.25170E+01  0.14972E+01  0.18462E+02      982.00
  0.29592E+00  0.61469E+02    0.17500E+00  0.17500E+00 -0.35000E+00  0.00000E+00  0.00000E+00  0.00000E+00    0.16841E+02  0.17943E+02 -0.34784E+02 -0.25756E+01  0.15820E+01  0.18509E+02      982.00
  0.31715E+00  0.61787E+02    0.18750E+00  0.18750E+00 -0.37500E+00  0.00000E+00  0.00000E+00  0.00000E+00    0.16953E+02  0.18037E+02 -0.34989E+02 -0.26180E+01  0.16465E+01  0.18561E+02      982.00
  0.33838E+00  0.62092E+02    0.20000E+00  0.20000E+00 -0.40000E+00  0.00000E+00  0.00000E+00  0.00000E+00    0.17063E+02  0.18127E+02 -0.35189E+02 -0.26500E+01  0.17005E+01  0.18607E+02      982.00
  0.35963E+00  0.62372E+02    0.21250E+00  0.21250E+00 -0.42500E+00  0.00000E+00  0.00000E+00  0.00000E+00    0.17171E+02  0.18209E+02 -0.35380E+02 -0.26769E+01  0.17560E+01  0.18640E+02      982.00
  0.38091E+00  0.62641E+02    0.22500E+00  0.22500E+00 -0.45000E+00  0.00000E+00  0.00000E+00  0.00000E+00    0.17277E+02  0.18289E+02 -0.35566E+02 -0.26908E+01  0.17928E+01  0.18669E+02      982.00
  0.40220E+00  0.62893E+02    0.23750E+00  0.23750E+00 -0.47500E+00  0.00000E+00  0.00000E+00  0.00000E+00    0.17381E+02  0.18364E+02 -0.35745E+02 -0.26983E+01  0.18229E+01  0.18691E+02      982.00
  0.42351E+00  0.63126E+02    0.25000E+00  0.25000E+00 -0.50000E+00  0.00000E+00  0.00000E+00  0.00000E+00    0.17482E+02  0.18434E+02 -0.35916E+02 -0.27003E+01  0.18473E+01  0.18706E+02      982.00
  0.44485E+00  0.63342E+02    0.26250E+00  0.26250E+00 -0.52500E+00  0.00000E+00  0.00000E+00  0.00000E+00    0.17580E+02  0.18498E+02 -0.36078E+02 -0.26975E+01  0.18665E+01  0.18715E+02      982.00
  0.46620E+00  0.63546E+02    0.27500E+00  0.27500E+00 -0.55000E+00  0.00000E+00  0.00000E+00  0.00000E+00    0.17682E+02  0.18552E+02 -0.36234E+02 -0.26892E+01  0.18892E+01  0.18719E+02      982.00
  0.48759E+00  0.63725E+02    0.28750E+00  0.28750E+00 -0.57500E+00  0.00000E+00  0.00000E+00  0.00000E+00    0.17767E+02  0.18608E+02 -0.36375E+02 -0.26798E+01  0.18930E+01  0.18717E+02      982.00
  0.50899E+00  0.63896E+02    0.30000E+00  0.30000E+00 -0.60000E+00  0.00000E+00  0.00000E+00  0.00000E+00    0.17861E+02  0.18652E+02 -0.36513E+02 -0.26632E+01  0.19047E+01  0.18711E+02      982.00
  0.53042E+00  0.64051E+02    0.31250E+00  0.31250E+00 -0.62500E+00  0.00000E+00  0.00000E+00  0.00000E+00    0.17947E+02  0.18694E+02 -0.36641E+02 -0.26458E+01  0.19089E+01  0.18703E+02      982.00
  0.55187E+00  0.64193E+02    0.32500E+00  0.32500E+00 -0.65000E+00  0.00000E+00  0.00000E+00  0.00000E+00    0.18029E+02  0.18732E+02 -0.36761E+02 -0.26275E+01  0.19097E+01  0.18692E+02      982.00
  0.57335E+00  0.64324E+02    0.33750E+00  0.33750E+00 -0.67500E+00  0.00000E+00  0.00000E+00  0.00000E+00    0.18108E+02  0.18765E+02 -0.36873E+02 -0.26081E+01  0.19081E+01  0.18679E+02      982.00
  0.59485E+00  0.64444E+02    0.35000E+00  0.35000E+00 -0.70000E+00  0.00000E+00  0.00000E+00  0.00000E+00    0.18183E+02  0.18795E+02 -0.36978E+02 -0.25880E+01  0.19048E+01  0.18665E+02      982.00
  0.61636E+00  0.64556E+02    0.36250E+00  0.36250E+00 -0.72500E+00  0.00000E+00  0.00000E+00  0.00000E+00    0.18256E+02  0.18821E+02 -0.37077E+02 -0.25672E+01  0.19000E+01  0.18650E+02      982.00
  0.63790E+00  0.64648E+02    0.37500E+00  0.37500E+00 -0.75000E+00  0.00000E+00  0.00000E+00  0.00000E+00    0.18318E+02  0.18841E+02 -0.37159E+02 -0.25506E+01  0.18963E+01  0.18638E+02      982.00
  0.65946E+00  0.64745E+02    0.38750E+00  0.38750E+00 -0.77500E+00  0.00000E+00  0.00000E+00  0.00000E+00    0.18385E+02  0.18862E+02 -0.37247E+02 -0.25300E+01  0.18895E+01  0.18622E+02      982.00
  0.68103E+00  0.64833E+02    0.40000E+00  0.40000E+00 -0.80000E+00  0.00000E+00  0.00000E+00  0.00000E+00    0.18449E+02  0.18879E+02 -0.37329E+02 -0.25091E+01  0.18820E+01  0.18606E+02      982.00
  0.70262E+00  0.64916E+02    0.41250E+00  0.41250E+00 -0.82500E+00  0.00000E+00  0.00000E+00  0.00000E+00    0.18512E+02  0.18893E+02 -0.37405E+02 -0.24884E+01  0.18740E+01  0.18590E+02      982.00
  0.72423E+00  0.64992E+02    0.42500E+00  0.42500E+00 -0.85000E+00  0.00000E+00  0.00000E+00  0.00000E+00    0.18572E+02  0.18905E+02 -0.37477E+02 -0.24681E+01  0.18656E+01  0.18574E+02      982.00
  0.74585E+00  0.65063E+02    0.43750E+00  0.43750E+00 -0.87500E+00  0.00000E+00  0.00000E+00  0.00000E+00    0.18629E+02  0.18915E+02 -0.37544E+02 -0.24483E+01  0.18569E+01  0.18559E+02      982.00
  0.76749E+00  0.65129E+02    0.45000E+00  0.45000E+00 -0.90000E+00  0.00000E+00  0.00000E+00  0.00000E+00    0.18685E+02  0.18922E+02 -0.37607E+02 -0.24291E+01  0.18481E+01  0.18544E+02      982.00
  0.78914E+00  0.65190E+02    0.46250E+00  0.46250E+00 -0.92500E+00  0.00000E+00  0.00000E+00  0.00000E+00    0.18739E+02  0.18927E+02 -0.37666E+02 -0.24106E+01  0.18393E+01  0.18530E+02      982.00
  0.81081E+00  0.65247E+02    0.47500E+00  0.47500E+00 -0.95000E+00  0.00000E+00  0.00000E+00  0.00000E+00    0.18791E+02  0.18930E+02 -0.37721E+02 -0.23929E+01  0.18305E+01  0.18516E+02      982.00
  0.83249E+00  0.65301E+02    0.48750E+00  0.48750E+00 -0.97500E+00  0.00000E+00  0.00000E+00  0.00000E+00    0.18841E+02  0.18932E+02 -0.37772E+02 -0.23759E+01  0.18219E+01  0.18503E+02      982.00
  0.85418E+00  0.65351E+02    0.50000E+00  0.50000E+00 -0.10000E+01  0.00000E+00  0.00000E+00  0.00000E+00    0.18889E+02  0.18932E+02 -0.37821E+02 -0.23597E+01  0.18133E+01  0.18491E+02      982.00
