          Evm          Svm            E11          E22          E33          E23          E13          E12         SDEV11       SDEV22       SDEV33       SDEV23       SDEV13       SDEV12      TEMP
  0.00000E+00  0.63044E+02    0.00000E+00  0.00000E+00  0.00000E+00  0.00000E+00  0.00000E+00  0.00000E+00    0.21729E+02  0.18817E+02 -0.40545E+02 -0.32929E+01  0.32133E+01  0.82826E+01      982.00
  0.24117E-01  0.63046E+02    0.12500E-01  0.12500E-01 -0.25000E-01  0.00000E+00  0.00000E+00  0.00000E+00    0.22250E+02  0.18322E+02 -0.40572E+02 -0.30922E+01  0.30604E+01  0.82215E+01      982.00
  0.48250E-01  0.63074E+02    0.25000E-01  0.25000E-01 -0.50000E-01  0.00000E+00  0.00000E+00  0.00000E+00    0.22664E+02  0.17944E+02 -0.40608E+02 -0.28242E+01  0.30527E+01  0.81551E+01      982.00
  0.72393E-01  0.63132E+02    0.37500E-01  0.37500E-01 -0.75000E-01  0.00000E+00  0.00000E+00  0.00000E+00    0.23027E+02  0.17626E+02 -0.40654E+02 -0.25471E+01  0.31127E+01  0.80965E+01      982.00
  0.96540E-01  0.63218E+02    0.50000E-01  0.50000E-01 -0.10000E+00  0.00000E+00  0.00000E+00  0.00000E+00    0.23348E+02  0.17359E+02 -0.40707E+02 -0.22902E+01  0.31981E+01  0.80572E+01      982.00
  0.12069E+00  0.63341E+02    0.62500E-01  0.62500E-01 -0.12500E+00  0.00000E+00  0.00000E+00  0.00000E+00    0.23650E+02  0.17127E+02 -0.40777E+02 -0.20674E+01  0.32858E+01  0.80384E+01      982.00
  0.14483E+00  0.63494E+02    0.75000E-01  0.75000E-01 -0.15000E+00  0.00000E+00  0.00000E+00  0.00000E+00    0.23922E+02  0.16935E+02 -0.40857E+02 -0.18789E+01  0.33655E+01  0.80495E+01      982.00
  0.16896E+00  0.63676E+02    0.87500E-01  0.87500E-01 -0.17500E+00  0.00000E+00  0.00000E+00  0.00000E+00    0.24174E+02  0.16776E+02 -0.40950E+02 -0.17241E+01  0.34364E+01  0.80865E+01      982.00
  0.19308E+00  0.63881E+02    0.10000E+00  0.10000E+00 -0.20000E+00  0.00000E+00  0.00000E+00  0.00000E+00    0.24418E+02  0.16635E+02 -0.41054E+02 -0.16010E+01  0.34941E+01  0.81422E+01      982.00
  0.21717E+00  0.64125E+02    0.11250E+00  0.11250E+00 -0.22500E+00  0.00000E+00  0.00000E+00  0.00000E+00    0.24645E+02  0.16532E+02 -0.41178E+02 -0.15048E+01  0.35458E+01  0.82262E+01      982.00
  0.24126E+00  0.64387E+02    0.12500E+00  0.12500E+00 -0.25000E+00  0.00000E+00  0.00000E+00  0.00000E+00    0.24860E+02  0.16451E+02 -0.41311E+02 -0.14326E+01  0.35882E+01  0.83274E+01      982.00
  0.26532E+00  0.64646E+02    0.13750E+00  0.13750E+00 -0.27500E+00  0.00000E+00  0.00000E+00  0.00000E+00    0.25065E+02  0.16376E+02 -0.41440E+02 -0.13808E+01  0.36161E+01  0.84382E+01      982.00
  0.28935E+00  0.64920E+02    0.15000E+00  0.15000E+00 -0.30000E+00  0.00000E+00  0.00000E+00  0.00000E+00    0.25251E+02  0.16327E+02 -0.41578E+02 -0.13483E+01  0.36394E+01  0.85639E+01      982.00
  0.31337E+00  0.65196E+02    0.16250E+00  0.16250E+00 -0.32500E+00  0.00000E+00  0.00000E+00  0.00000E+00    0.25424E+02  0.16293E+02 -0.41717E+02 -0.13318E+01  0.36525E+01  0.86977E+01      982.00
  0.33737E+00  0.65457E+02    0.17500E+00  0.17500E+00 -0.35000E+00  0.00000E+00  0.00000E+00  0.00000E+00    0.25587E+02  0.16258E+02 -0.41845E+02 -0.13287E+01  0.36488E+01  0.88380E+01      982.00
  0.36134E+00  0.65747E+02    0.18750E+00  0.18750E+00 -0.37500E+00  0.00000E+00  0.00000E+00  0.00000E+00    0.25740E+02  0.16252E+02 -0.41992E+02 -0.13392E+01  0.36410E+01  0.89904E+01      982.00
  0.38529E+00  0.65965E+02    0.20000E+00  0.20000E+00 -0.40000E+00  0.00000E+00  0.00000E+00  0.00000E+00    0.25849E+02  0.16250E+02 -0.42099E+02 -0.13597E+01  0.36194E+01  0.91241E+01      982.00
  0.40922E+00  0.66212E+02    0.21250E+00  0.21250E+00 -0.42500E+00  0.00000E+00  0.00000E+00  0.00000E+00    0.25960E+02  0.16261E+02 -0.42221E+02 -0.13905E+01  0.35883E+01  0.92762E+01      982.00
  0.43314E+00  0.66425E+02    0.22500E+00  0.22500E+00 -0.45000E+00  0.00000E+00  0.00000E+00  0.00000E+00    0.26051E+02  0.16272E+02 -0.42323E+02 -0.14301E+01  0.35371E+01  0.94270E+01      982.00
  0.45703E+00  0.66640E+02    0.23750E+00  0.23750E+00 -0.47500E+00  0.00000E+00  0.00000E+00  0.00000E+00    0.26125E+02  0.16303E+02 -0.42428E+02 -0.14769E+01  0.34855E+01  0.95784E+01      982.00
  0.48090E+00  0.66828E+02    0.25000E+00  0.25000E+00 -0.50000E+00  0.00000E+00  0.00000E+00  0.00000E+00    0.26172E+02  0.16348E+02 -0.42520E+02 -0.15262E+01  0.34284E+01  0.97191E+01      982.00
  0.50476E+00  0.67017E+02    0.26250E+00  0.26250E+00 -0.52500E+00  0.00000E+00  0.00000E+00  0.00000E+00    0.26214E+02  0.16398E+02 -0.42613E+02 -0.15809E+01  0.33613E+01  0.98661E+01      982.00
  0.52861E+00  0.67199E+02    0.27500E+00  0.27500E+00 -0.55000E+00  0.00000E+00  0.00000E+00  0.00000E+00    0.26244E+02  0.16457E+02 -0.42701E+02 -0.16384E+01  0.32896E+01  0.10012E+02      982.00
  0.55244E+00  0.67387E+02    0.28750E+00  0.28750E+00 -0.57500E+00  0.00000E+00  0.00000E+00  0.00000E+00    0.26272E+02  0.16521E+02 -0.42793E+02 -0.16971E+01  0.32248E+01  0.10158E+02      982.00
  0.57625E+00  0.67546E+02    0.30000E+00  0.30000E+00 -0.60000E+00  0.00000E+00  0.00000E+00  0.00000E+00    0.26280E+02  0.16591E+02 -0.42871E+02 -0.17560E+01  0.31476E+01  0.10292E+02      982.00
  0.60005E+00  0.67668E+02    0.31250E+00  0.31250E+00 -0.62500E+00  0.00000E+00  0.00000E+00  0.00000E+00    0.26263E+02  0.16666E+02 -0.42929E+02 -0.18127E+01  0.30609E+01  0.10415E+02      982.00
  0.62384E+00  0.67807E+02    0.32500E+00  0.32500E+00 -0.65000E+00  0.00000E+00  0.00000E+00  0.00000E+00    0.26252E+02  0.16746E+02 -0.42998E+02 -0.18684E+01  0.29849E+01  0.10536E+02      982.00
  0.64762E+00  0.67945E+02    0.33750E+00  0.33750E+00 -0.67500E+00  0.00000E+00  0.00000E+00  0.00000E+00    0.26238E+02  0.16829E+02 -0.43067E+02 -0.19208E+01  0.29096E+01  0.10651E+02      982.00
  0.67139E+00  0.68067E+02    0.35000E+00  0.35000E+00 -0.70000E+00  0.00000E+00  0.00000E+00  0.00000E+00    0.26217E+02  0.16911E+02 -0.43129E+02 -0.19712E+01  0.28386E+01  0.10758E+02      982.00
  0.69515E+00  0.68188E+02    0.36250E+00  0.36250E+00 -0.72500E+00  0.00000E+00  0.00000E+00  0.00000E+00    0.26195E+02  0.16996E+02 -0.43191E+02 -0.20188E+01  0.27704E+01  0.10858E+02      982.00
  0.71890E+00  0.68302E+02    0.37500E+00  0.37500E+00 -0.75000E+00  0.00000E+00  0.00000E+00  0.00000E+00    0.26169E+02  0.17080E+02 -0.43249E+02 -0.20634E+01  0.27057E+01  0.10953E+02      982.00
  0.74265E+00  0.68406E+02    0.38750E+00  0.38750E+00 -0.77500E+00  0.00000E+00  0.00000E+00  0.00000E+00    0.26141E+02  0.17162E+02 -0.43303E+02 -0.21049E+01  0.26445E+01  0.11038E+02      982.00
  0.76639E+00  0.68490E+02    0.40000E+00  0.40000E+00 -0.80000E+00  0.00000E+00  0.00000E+00  0.00000E+00    0.26099E+02  0.17248E+02 -0.43347E+02 -0.21478E+01  0.25760E+01  0.11116E+02      982.00
  0.79012E+00  0.68588E+02    0.41250E+00  0.41250E+00 -0.82500E+00  0.00000E+00  0.00000E+00  0.00000E+00    0.26071E+02  0.17328E+02 -0.43399E+02 -0.21842E+01  0.25218E+01  0.11192E+02      982.00
  0.81385E+00  0.68675E+02    0.42500E+00  0.42500E+00 -0.85000E+00  0.00000E+00  0.00000E+00  0.00000E+00    0.26040E+02  0.17405E+02 -0.43445E+02 -0.22176E+01  0.24713E+01  0.11260E+02      982.00
  0.83757E+00  0.68761E+02    0.43750E+00  0.43750E+00 -0.87500E+00  0.00000E+00  0.00000E+00  0.00000E+00    0.26012E+02  0.17481E+02 -0.43493E+02 -0.22485E+01  0.24234E+01  0.11321E+02      982.00
  0.86129E+00  0.68844E+02    0.45000E+00  0.45000E+00 -0.90000E+00  0.00000E+00  0.00000E+00  0.00000E+00    0.25983E+02  0.17555E+02 -0.43539E+02 -0.22772E+01  0.23791E+01  0.11381E+02      982.00
  0.88501E+00  0.68916E+02    0.46250E+00  0.46250E+00 -0.92500E+00  0.00000E+00  0.00000E+00  0.00000E+00    0.25953E+02  0.17625E+02 -0.43578E+02 -0.23044E+01  0.23376E+01  0.11433E+02      982.00
  0.90872E+00  0.68984E+02    0.47500E+00  0.47500E+00 -0.95000E+00  0.00000E+00  0.00000E+00  0.00000E+00    0.25923E+02  0.17694E+02 -0.43617E+02 -0.23293E+01  0.22986E+01  0.11480E+02      982.00
  0.93243E+00  0.69050E+02    0.48750E+00  0.48750E+00 -0.97500E+00  0.00000E+00  0.00000E+00  0.00000E+00    0.25895E+02  0.17760E+02 -0.43655E+02 -0.23522E+01  0.22619E+01  0.11525E+02      982.00
  0.95614E+00  0.69082E+02    0.50000E+00  0.50000E+00 -0.10000E+01  0.00000E+00  0.00000E+00  0.00000E+00    0.25856E+02  0.17816E+02 -0.43672E+02 -0.23632E+01  0.22197E+01  0.11563E+02      982.00
