          Evm          Svm            E11          E22          E33          E23          E13          E12         SDEV11       SDEV22       SDEV33       SDEV23       SDEV13       SDEV12      TEMP
  0.00000E+00  0.56402E+02    0.00000E+00  0.00000E+00  0.00000E+00  0.00000E+00  0.00000E+00  0.00000E+00    0.17943E+02  0.15324E+02 -0.33267E+02 -0.16237E+01  0.51602E+01  0.14121E+02      982.00
  0.22118E-01  0.56351E+02    0.12500E-01  0.12500E-01 -0.25000E-01  0.00000E+00  0.00000E+00  0.00000E+00    0.17726E+02  0.15557E+02 -0.33283E+02 -0.18164E+01  0.47607E+01  0.14160E+02      982.00
  0.44267E-01  0.56437E+02    0.25000E-01  0.25000E-01 -0.50000E-01  0.00000E+00  0.00000E+00  0.00000E+00    0.17609E+02  0.15739E+02 -0.33347E+02 -0.19617E+01  0.44366E+01  0.14257E+02      982.00
  0.66425E-01  0.56647E+02    0.37500E-01  0.37500E-01 -0.75000E-01  0.00000E+00  0.00000E+00  0.00000E+00    0.17557E+02  0.15901E+02 -0.33458E+02 -0.20787E+01  0.41542E+01  0.14416E+02      982.00
  0.88574E-01  0.56955E+02    0.50000E-01  0.50000E-01 -0.10000E+00  0.00000E+00  0.00000E+00  0.00000E+00    0.17550E+02  0.16056E+02 -0.33605E+02 -0.21771E+01  0.38986E+01  0.14622E+02      982.00
  0.11070E+00  0.57338E+02    0.62500E-01  0.62500E-01 -0.12500E+00  0.00000E+00  0.00000E+00  0.00000E+00    0.17578E+02  0.16204E+02 -0.33782E+02 -0.22589E+01  0.36720E+01  0.14862E+02      982.00
  0.13279E+00  0.57769E+02    0.75000E-01  0.75000E-01 -0.15000E+00  0.00000E+00  0.00000E+00  0.00000E+00    0.17633E+02  0.16347E+02 -0.33980E+02 -0.23220E+01  0.34739E+01  0.15119E+02      982.00
  0.15485E+00  0.58231E+02    0.87500E-01  0.87500E-01 -0.17500E+00  0.00000E+00  0.00000E+00  0.00000E+00    0.17700E+02  0.16490E+02 -0.34190E+02 -0.23765E+01  0.32961E+01  0.15384E+02      982.00
  0.17687E+00  0.58703E+02    0.10000E+00  0.10000E+00 -0.20000E+00  0.00000E+00  0.00000E+00  0.00000E+00    0.17776E+02  0.16632E+02 -0.34408E+02 -0.24205E+01  0.31380E+01  0.15645E+02      982.00
  0.19885E+00  0.59180E+02    0.11250E+00  0.11250E+00 -0.22500E+00  0.00000E+00  0.00000E+00  0.00000E+00    0.17857E+02  0.16770E+02 -0.34628E+02 -0.24507E+01  0.30033E+01  0.15899E+02      982.00
  0.22079E+00  0.59639E+02    0.12500E+00  0.12500E+00 -0.25000E+00  0.00000E+00  0.00000E+00  0.00000E+00    0.17935E+02  0.16909E+02 -0.34844E+02 -0.24773E+01  0.28796E+01  0.16136E+02      982.00
  0.24270E+00  0.60092E+02    0.13750E+00  0.13750E+00 -0.27500E+00  0.00000E+00  0.00000E+00  0.00000E+00    0.18014E+02  0.17044E+02 -0.35058E+02 -0.24935E+01  0.27771E+01  0.16363E+02      982.00
  0.26458E+00  0.60512E+02    0.15000E+00  0.15000E+00 -0.30000E+00  0.00000E+00  0.00000E+00  0.00000E+00    0.18083E+02  0.17178E+02 -0.35261E+02 -0.25074E+01  0.26796E+01  0.16565E+02      982.00
  0.28643E+00  0.60922E+02    0.16250E+00  0.16250E+00 -0.32500E+00  0.00000E+00  0.00000E+00  0.00000E+00    0.18154E+02  0.17307E+02 -0.35461E+02 -0.25136E+01  0.26017E+01  0.16757E+02      982.00
  0.30826E+00  0.61306E+02    0.17500E+00  0.17500E+00 -0.35000E+00  0.00000E+00  0.00000E+00  0.00000E+00    0.18220E+02  0.17431E+02 -0.35651E+02 -0.25159E+01  0.25335E+01  0.16930E+02      982.00
  0.33006E+00  0.61653E+02    0.18750E+00  0.18750E+00 -0.37500E+00  0.00000E+00  0.00000E+00  0.00000E+00    0.18274E+02  0.17553E+02 -0.35827E+02 -0.25166E+01  0.24647E+01  0.17082E+02      982.00
  0.35186E+00  0.61986E+02    0.20000E+00  0.20000E+00 -0.40000E+00  0.00000E+00  0.00000E+00  0.00000E+00    0.18330E+02  0.17669E+02 -0.35998E+02 -0.25127E+01  0.24118E+01  0.17222E+02      982.00
  0.37363E+00  0.62293E+02    0.21250E+00  0.21250E+00 -0.42500E+00  0.00000E+00  0.00000E+00  0.00000E+00    0.18382E+02  0.17778E+02 -0.36159E+02 -0.25062E+01  0.23648E+01  0.17346E+02      982.00
  0.39540E+00  0.62573E+02    0.22500E+00  0.22500E+00 -0.45000E+00  0.00000E+00  0.00000E+00  0.00000E+00    0.18423E+02  0.17885E+02 -0.36308E+02 -0.24974E+01  0.23139E+01  0.17458E+02      982.00
  0.41716E+00  0.62834E+02    0.23750E+00  0.23750E+00 -0.47500E+00  0.00000E+00  0.00000E+00  0.00000E+00    0.18467E+02  0.17983E+02 -0.36450E+02 -0.24870E+01  0.22762E+01  0.17555E+02      982.00
  0.43891E+00  0.63070E+02    0.25000E+00  0.25000E+00 -0.50000E+00  0.00000E+00  0.00000E+00  0.00000E+00    0.18507E+02  0.18074E+02 -0.36581E+02 -0.24747E+01  0.22414E+01  0.17639E+02      982.00
  0.46066E+00  0.63292E+02    0.26250E+00  0.26250E+00 -0.52500E+00  0.00000E+00  0.00000E+00  0.00000E+00    0.18546E+02  0.18160E+02 -0.36705E+02 -0.24614E+01  0.22105E+01  0.17715E+02      982.00
  0.48241E+00  0.63498E+02    0.27500E+00  0.27500E+00 -0.55000E+00  0.00000E+00  0.00000E+00  0.00000E+00    0.18577E+02  0.18245E+02 -0.36822E+02 -0.24439E+01  0.21733E+01  0.17788E+02      982.00
  0.50416E+00  0.63652E+02    0.28750E+00  0.28750E+00 -0.57500E+00  0.00000E+00  0.00000E+00  0.00000E+00    0.18603E+02  0.18309E+02 -0.36912E+02 -0.24308E+01  0.21496E+01  0.17835E+02      982.00
  0.52590E+00  0.63826E+02    0.30000E+00  0.30000E+00 -0.60000E+00  0.00000E+00  0.00000E+00  0.00000E+00    0.18637E+02  0.18378E+02 -0.37015E+02 -0.24152E+01  0.21262E+01  0.17888E+02      982.00
  0.54765E+00  0.63987E+02    0.31250E+00  0.31250E+00 -0.62500E+00  0.00000E+00  0.00000E+00  0.00000E+00    0.18669E+02  0.18442E+02 -0.37112E+02 -0.23993E+01  0.21041E+01  0.17934E+02      982.00
  0.56940E+00  0.64146E+02    0.32500E+00  0.32500E+00 -0.65000E+00  0.00000E+00  0.00000E+00  0.00000E+00    0.18697E+02  0.18509E+02 -0.37206E+02 -0.23786E+01  0.20748E+01  0.17983E+02      982.00
  0.59115E+00  0.64281E+02    0.33750E+00  0.33750E+00 -0.67500E+00  0.00000E+00  0.00000E+00  0.00000E+00    0.18727E+02  0.18563E+02 -0.37290E+02 -0.23624E+01  0.20544E+01  0.18018E+02      982.00
  0.61291E+00  0.64404E+02    0.35000E+00  0.35000E+00 -0.70000E+00  0.00000E+00  0.00000E+00  0.00000E+00    0.18756E+02  0.18611E+02 -0.37368E+02 -0.23467E+01  0.20362E+01  0.18048E+02      982.00
  0.63466E+00  0.64519E+02    0.36250E+00  0.36250E+00 -0.72500E+00  0.00000E+00  0.00000E+00  0.00000E+00    0.18785E+02  0.18656E+02 -0.37440E+02 -0.23312E+01  0.20191E+01  0.18075E+02      982.00
  0.65643E+00  0.64624E+02    0.37500E+00  0.37500E+00 -0.75000E+00  0.00000E+00  0.00000E+00  0.00000E+00    0.18813E+02  0.18696E+02 -0.37508E+02 -0.23162E+01  0.20029E+01  0.18098E+02      982.00
  0.67819E+00  0.64722E+02    0.38750E+00  0.38750E+00 -0.77500E+00  0.00000E+00  0.00000E+00  0.00000E+00    0.18840E+02  0.18732E+02 -0.37572E+02 -0.23018E+01  0.19874E+01  0.18119E+02      982.00
  0.69996E+00  0.64812E+02    0.40000E+00  0.40000E+00 -0.80000E+00  0.00000E+00  0.00000E+00  0.00000E+00    0.18866E+02  0.18765E+02 -0.37631E+02 -0.22879E+01  0.19728E+01  0.18137E+02      982.00
  0.72173E+00  0.64896E+02    0.41250E+00  0.41250E+00 -0.82500E+00  0.00000E+00  0.00000E+00  0.00000E+00    0.18893E+02  0.18795E+02 -0.37687E+02 -0.22746E+01  0.19588E+01  0.18154E+02      982.00
  0.74351E+00  0.64973E+02    0.42500E+00  0.42500E+00 -0.85000E+00  0.00000E+00  0.00000E+00  0.00000E+00    0.18919E+02  0.18821E+02 -0.37739E+02 -0.22620E+01  0.19455E+01  0.18168E+02      982.00
  0.76529E+00  0.65046E+02    0.43750E+00  0.43750E+00 -0.87500E+00  0.00000E+00  0.00000E+00  0.00000E+00    0.18944E+02  0.18844E+02 -0.37788E+02 -0.22501E+01  0.19328E+01  0.18181E+02      982.00
  0.78708E+00  0.65113E+02    0.45000E+00  0.45000E+00 -0.90000E+00  0.00000E+00  0.00000E+00  0.00000E+00    0.18969E+02  0.18865E+02 -0.37834E+02 -0.22388E+01  0.19206E+01  0.18192E+02      982.00
  0.80887E+00  0.65176E+02    0.46250E+00  0.46250E+00 -0.92500E+00  0.00000E+00  0.00000E+00  0.00000E+00    0.18994E+02  0.18883E+02 -0.37877E+02 -0.22282E+01  0.19091E+01  0.18202E+02      982.00
  0.83066E+00  0.65222E+02    0.47500E+00  0.47500E+00 -0.95000E+00  0.00000E+00  0.00000E+00  0.00000E+00    0.19016E+02  0.18893E+02 -0.37909E+02 -0.22153E+01  0.18940E+01  0.18212E+02      982.00
  0.85246E+00  0.65280E+02    0.48750E+00  0.48750E+00 -0.97500E+00  0.00000E+00  0.00000E+00  0.00000E+00    0.19042E+02  0.18907E+02 -0.37949E+02 -0.22052E+01  0.18824E+01  0.18221E+02      982.00
  0.87426E+00  0.65301E+02    0.50000E+00  0.50000E+00 -0.10000E+01  0.00000E+00  0.00000E+00  0.00000E+00    0.19057E+02  0.18911E+02 -0.37968E+02 -0.21913E+01  0.18751E+01  0.18219E+02      982.00
