          Evm          Svm            E11          E22          E33          E23          E13          E12         SDEV11       SDEV22       SDEV33       SDEV23       SDEV13       SDEV12      TEMP
  0.00000E+00  0.59856E+02    0.00000E+00  0.00000E+00  0.00000E+00  0.00000E+00  0.00000E+00  0.00000E+00    0.15229E+02  0.23102E+02 -0.38331E+02 -0.27599E+01  0.76182E+01  0.33353E+01      982.00
  0.24015E-01  0.59524E+02    0.12500E-01  0.12500E-01 -0.25000E-01  0.00000E+00  0.00000E+00  0.00000E+00    0.14966E+02  0.23225E+02 -0.38191E+02 -0.26494E+01  0.72110E+01  0.33223E+01      982.00
  0.48075E-01  0.59236E+02    0.25000E-01  0.25000E-01 -0.50000E-01  0.00000E+00  0.00000E+00  0.00000E+00    0.14724E+02  0.23342E+02 -0.38067E+02 -0.25361E+01  0.68430E+01  0.33209E+01      982.00
  0.72173E-01  0.59052E+02    0.37500E-01  0.37500E-01 -0.75000E-01  0.00000E+00  0.00000E+00  0.00000E+00    0.14529E+02  0.23465E+02 -0.37994E+02 -0.24220E+01  0.65406E+01  0.33365E+01      982.00
  0.96301E-01  0.59013E+02    0.50000E-01  0.50000E-01 -0.10000E+00  0.00000E+00  0.00000E+00  0.00000E+00    0.14391E+02  0.23609E+02 -0.37999E+02 -0.23154E+01  0.63182E+01  0.33699E+01      982.00
  0.12045E+00  0.59104E+02    0.62500E-01  0.62500E-01 -0.12500E+00  0.00000E+00  0.00000E+00  0.00000E+00    0.14305E+02  0.23774E+02 -0.38079E+02 -0.22161E+01  0.61614E+01  0.34142E+01      982.00
  0.14461E+00  0.59325E+02    0.75000E-01  0.75000E-01 -0.15000E+00  0.00000E+00  0.00000E+00  0.00000E+00    0.14269E+02  0.23964E+02 -0.38233E+02 -0.21283E+01  0.60669E+01  0.34664E+01      982.00
  0.16877E+00  0.59647E+02    0.87500E-01  0.87500E-01 -0.17500E+00  0.00000E+00  0.00000E+00  0.00000E+00    0.14266E+02  0.24178E+02 -0.38444E+02 -0.20511E+01  0.60251E+01  0.35219E+01      982.00
  0.19294E+00  0.60068E+02    0.10000E+00  0.10000E+00 -0.20000E+00  0.00000E+00  0.00000E+00  0.00000E+00    0.14298E+02  0.24413E+02 -0.38712E+02 -0.19933E+01  0.60351E+01  0.35783E+01      982.00
  0.21711E+00  0.60531E+02    0.11250E+00  0.11250E+00 -0.22500E+00  0.00000E+00  0.00000E+00  0.00000E+00    0.14344E+02  0.24659E+02 -0.39003E+02 -0.19378E+01  0.60737E+01  0.36305E+01      982.00
  0.24127E+00  0.61041E+02    0.12500E+00  0.12500E+00 -0.25000E+00  0.00000E+00  0.00000E+00  0.00000E+00    0.14413E+02  0.24910E+02 -0.39324E+02 -0.18977E+01  0.61310E+01  0.36748E+01      982.00
  0.26543E+00  0.61559E+02    0.13750E+00  0.13750E+00 -0.27500E+00  0.00000E+00  0.00000E+00  0.00000E+00    0.14491E+02  0.25159E+02 -0.39650E+02 -0.18627E+01  0.61971E+01  0.37101E+01      982.00
  0.28959E+00  0.62067E+02    0.15000E+00  0.15000E+00 -0.30000E+00  0.00000E+00  0.00000E+00  0.00000E+00    0.14572E+02  0.25399E+02 -0.39970E+02 -0.18310E+01  0.62661E+01  0.37362E+01      982.00
  0.31374E+00  0.62559E+02    0.16250E+00  0.16250E+00 -0.32500E+00  0.00000E+00  0.00000E+00  0.00000E+00    0.14654E+02  0.25628E+02 -0.40282E+02 -0.18008E+01  0.63339E+01  0.37530E+01      982.00
  0.33788E+00  0.63018E+02    0.17500E+00  0.17500E+00 -0.35000E+00  0.00000E+00  0.00000E+00  0.00000E+00    0.14733E+02  0.25842E+02 -0.40575E+02 -0.17709E+01  0.63960E+01  0.37616E+01      982.00
  0.36203E+00  0.63437E+02    0.18750E+00  0.18750E+00 -0.37500E+00  0.00000E+00  0.00000E+00  0.00000E+00    0.14798E+02  0.26039E+02 -0.40837E+02 -0.17373E+01  0.64726E+01  0.37595E+01      982.00
  0.38617E+00  0.63843E+02    0.20000E+00  0.20000E+00 -0.40000E+00  0.00000E+00  0.00000E+00  0.00000E+00    0.14869E+02  0.26228E+02 -0.41097E+02 -0.17074E+01  0.65305E+01  0.37537E+01      982.00
  0.41031E+00  0.64214E+02    0.21250E+00  0.21250E+00 -0.42500E+00  0.00000E+00  0.00000E+00  0.00000E+00    0.14933E+02  0.26402E+02 -0.41335E+02 -0.16774E+01  0.65831E+01  0.37414E+01      982.00
  0.43445E+00  0.64551E+02    0.22500E+00  0.22500E+00 -0.45000E+00  0.00000E+00  0.00000E+00  0.00000E+00    0.14990E+02  0.26562E+02 -0.41552E+02 -0.16468E+01  0.66319E+01  0.37217E+01      982.00
  0.45859E+00  0.64867E+02    0.23750E+00  0.23750E+00 -0.47500E+00  0.00000E+00  0.00000E+00  0.00000E+00    0.15043E+02  0.26713E+02 -0.41756E+02 -0.16157E+01  0.66754E+01  0.36982E+01      982.00
  0.48272E+00  0.65152E+02    0.25000E+00  0.25000E+00 -0.50000E+00  0.00000E+00  0.00000E+00  0.00000E+00    0.15089E+02  0.26851E+02 -0.41941E+02 -0.15841E+01  0.67151E+01  0.36700E+01      982.00
  0.50686E+00  0.65409E+02    0.26250E+00  0.26250E+00 -0.52500E+00  0.00000E+00  0.00000E+00  0.00000E+00    0.15130E+02  0.26978E+02 -0.42108E+02 -0.15520E+01  0.67497E+01  0.36376E+01      982.00
  0.53101E+00  0.65649E+02    0.27500E+00  0.27500E+00 -0.55000E+00  0.00000E+00  0.00000E+00  0.00000E+00    0.15166E+02  0.27098E+02 -0.42265E+02 -0.15189E+01  0.67822E+01  0.36018E+01      982.00
  0.55515E+00  0.65868E+02    0.28750E+00  0.28750E+00 -0.57500E+00  0.00000E+00  0.00000E+00  0.00000E+00    0.15198E+02  0.27210E+02 -0.42408E+02 -0.14864E+01  0.68133E+01  0.35627E+01      982.00
  0.57929E+00  0.66063E+02    0.30000E+00  0.30000E+00 -0.60000E+00  0.00000E+00  0.00000E+00  0.00000E+00    0.15223E+02  0.27312E+02 -0.42535E+02 -0.14531E+01  0.68435E+01  0.35201E+01      982.00
  0.60344E+00  0.66245E+02    0.31250E+00  0.31250E+00 -0.62500E+00  0.00000E+00  0.00000E+00  0.00000E+00    0.15245E+02  0.27409E+02 -0.42654E+02 -0.14199E+01  0.68696E+01  0.34747E+01      982.00
  0.62758E+00  0.66396E+02    0.32500E+00  0.32500E+00 -0.65000E+00  0.00000E+00  0.00000E+00  0.00000E+00    0.15253E+02  0.27498E+02 -0.42751E+02 -0.13837E+01  0.69028E+01  0.34191E+01      982.00
  0.65173E+00  0.66549E+02    0.33750E+00  0.33750E+00 -0.67500E+00  0.00000E+00  0.00000E+00  0.00000E+00    0.15269E+02  0.27583E+02 -0.42852E+02 -0.13496E+01  0.69234E+01  0.33700E+01      982.00
  0.67587E+00  0.66684E+02    0.35000E+00  0.35000E+00 -0.70000E+00  0.00000E+00  0.00000E+00  0.00000E+00    0.15280E+02  0.27662E+02 -0.42942E+02 -0.13164E+01  0.69424E+01  0.33181E+01      982.00
  0.70002E+00  0.66810E+02    0.36250E+00  0.36250E+00 -0.72500E+00  0.00000E+00  0.00000E+00  0.00000E+00    0.15287E+02  0.27737E+02 -0.43025E+02 -0.12826E+01  0.69615E+01  0.32639E+01      982.00
  0.72417E+00  0.66924E+02    0.37500E+00  0.37500E+00 -0.75000E+00  0.00000E+00  0.00000E+00  0.00000E+00    0.15292E+02  0.27808E+02 -0.43100E+02 -0.12495E+01  0.69800E+01  0.32077E+01      982.00
  0.74832E+00  0.67032E+02    0.38750E+00  0.38750E+00 -0.77500E+00  0.00000E+00  0.00000E+00  0.00000E+00    0.15297E+02  0.27875E+02 -0.43172E+02 -0.12159E+01  0.69958E+01  0.31502E+01      982.00
  0.77247E+00  0.67128E+02    0.40000E+00  0.40000E+00 -0.80000E+00  0.00000E+00  0.00000E+00  0.00000E+00    0.15297E+02  0.27938E+02 -0.43235E+02 -0.11827E+01  0.70123E+01  0.30911E+01      982.00
  0.79663E+00  0.67214E+02    0.41250E+00  0.41250E+00 -0.82500E+00  0.00000E+00  0.00000E+00  0.00000E+00    0.15294E+02  0.27998E+02 -0.43292E+02 -0.11494E+01  0.70282E+01  0.30296E+01      982.00
  0.82078E+00  0.67293E+02    0.42500E+00  0.42500E+00 -0.85000E+00  0.00000E+00  0.00000E+00  0.00000E+00    0.15289E+02  0.28055E+02 -0.43345E+02 -0.11159E+01  0.70424E+01  0.29672E+01      982.00
  0.84494E+00  0.67290E+02    0.43750E+00  0.43750E+00 -0.87500E+00  0.00000E+00  0.00000E+00  0.00000E+00    0.15286E+02  0.28071E+02 -0.43357E+02 -0.10961E+01  0.69903E+01  0.29202E+01      982.00
  0.86910E+00  0.67283E+02    0.45000E+00  0.45000E+00 -0.90000E+00  0.00000E+00  0.00000E+00  0.00000E+00    0.15259E+02  0.28101E+02 -0.43360E+02 -0.10608E+01  0.69592E+01  0.28521E+01      982.00
  0.89326E+00  0.67281E+02    0.46250E+00  0.46250E+00 -0.92500E+00  0.00000E+00  0.00000E+00  0.00000E+00    0.15241E+02  0.28125E+02 -0.43366E+02 -0.10250E+01  0.69364E+01  0.27855E+01      982.00
  0.91744E+00  0.67280E+02    0.47500E+00  0.47500E+00 -0.95000E+00  0.00000E+00  0.00000E+00  0.00000E+00    0.15222E+02  0.28151E+02 -0.43373E+02 -0.98999E+00  0.69149E+01  0.27185E+01      982.00
  0.94161E+00  0.67283E+02    0.48750E+00  0.48750E+00 -0.97500E+00  0.00000E+00  0.00000E+00  0.00000E+00    0.15208E+02  0.28174E+02 -0.43382E+02 -0.95701E+00  0.68954E+01  0.26523E+01      982.00
  0.96579E+00  0.67278E+02    0.50000E+00  0.50000E+00 -0.10000E+01  0.00000E+00  0.00000E+00  0.00000E+00    0.15182E+02  0.28202E+02 -0.43384E+02 -0.92168E+00  0.68723E+01  0.25825E+01      982.00
