          Evm          Svm            E11          E22          E33          E23          E13          E12         SDEV11       SDEV22       SDEV33       SDEV23       SDEV13       SDEV12      TEMP
  0.00000E+00  0.61807E+02    0.00000E+00  0.00000E+00  0.00000E+00  0.00000E+00  0.00000E+00  0.00000E+00    0.21616E+02  0.17431E+02 -0.39047E+02 -0.24389E+01  0.18999E+01  0.10767E+02      982.00
  0.23691E-01  0.61975E+02    0.12500E-01  0.12500E-01 -0.25000E-01  0.00000E+00  0.00000E+00  0.00000E+00    0.21924E+02  0.17260E+02 -0.39184E+02 -0.26175E+01  0.21626E+01  0.10574E+02      982.00
  0.47400E-01  0.62035E+02    0.25000E-01  0.25000E-01 -0.50000E-01  0.00000E+00  0.00000E+00  0.00000E+00    0.22192E+02  0.17075E+02 -0.39268E+02 -0.27224E+01  0.24022E+01  0.10325E+02      982.00
  0.71137E-01  0.62080E+02    0.37500E-01  0.37500E-01 -0.75000E-01  0.00000E+00  0.00000E+00  0.00000E+00    0.22452E+02  0.16892E+02 -0.39345E+02 -0.27191E+01  0.26410E+01  0.10076E+02      982.00
  0.94904E-01  0.62159E+02    0.50000E-01  0.50000E-01 -0.10000E+00  0.00000E+00  0.00000E+00  0.00000E+00    0.22726E+02  0.16711E+02 -0.39437E+02 -0.26357E+01  0.28724E+01  0.98594E+01      982.00
  0.11870E+00  0.62277E+02    0.62500E-01  0.62500E-01 -0.12500E+00  0.00000E+00  0.00000E+00  0.00000E+00    0.23002E+02  0.16542E+02 -0.39544E+02 -0.25063E+01  0.30757E+01  0.96881E+01      982.00
  0.14251E+00  0.62435E+02    0.75000E-01  0.75000E-01 -0.15000E+00  0.00000E+00  0.00000E+00  0.00000E+00    0.23290E+02  0.16375E+02 -0.39665E+02 -0.23682E+01  0.32534E+01  0.95511E+01      982.00
  0.16633E+00  0.62628E+02    0.87500E-01  0.87500E-01 -0.17500E+00  0.00000E+00  0.00000E+00  0.00000E+00    0.23572E+02  0.16226E+02 -0.39798E+02 -0.22350E+01  0.34005E+01  0.94568E+01      982.00
  0.19016E+00  0.62853E+02    0.10000E+00  0.10000E+00 -0.20000E+00  0.00000E+00  0.00000E+00  0.00000E+00    0.23851E+02  0.16092E+02 -0.39943E+02 -0.21180E+01  0.35229E+01  0.93967E+01      982.00
  0.21399E+00  0.63097E+02    0.11250E+00  0.11250E+00 -0.22500E+00  0.00000E+00  0.00000E+00  0.00000E+00    0.24127E+02  0.15966E+02 -0.40094E+02 -0.20221E+01  0.36227E+01  0.93584E+01      982.00
  0.23782E+00  0.63371E+02    0.12500E+00  0.12500E+00 -0.25000E+00  0.00000E+00  0.00000E+00  0.00000E+00    0.24390E+02  0.15866E+02 -0.40256E+02 -0.19448E+01  0.37049E+01  0.93558E+01      982.00
  0.26164E+00  0.63664E+02    0.13750E+00  0.13750E+00 -0.27500E+00  0.00000E+00  0.00000E+00  0.00000E+00    0.24643E+02  0.15783E+02 -0.40426E+02 -0.18866E+01  0.37720E+01  0.93766E+01      982.00
  0.28546E+00  0.63965E+02    0.15000E+00  0.15000E+00 -0.30000E+00  0.00000E+00  0.00000E+00  0.00000E+00    0.24885E+02  0.15713E+02 -0.40598E+02 -0.18458E+01  0.38243E+01  0.94136E+01      982.00
  0.30926E+00  0.64257E+02    0.16250E+00  0.16250E+00 -0.32500E+00  0.00000E+00  0.00000E+00  0.00000E+00    0.25118E+02  0.15646E+02 -0.40764E+02 -0.18212E+01  0.38592E+01  0.94575E+01      982.00
  0.33305E+00  0.64562E+02    0.17500E+00  0.17500E+00 -0.35000E+00  0.00000E+00  0.00000E+00  0.00000E+00    0.25335E+02  0.15600E+02 -0.40934E+02 -0.18095E+01  0.38840E+01  0.95202E+01      982.00
  0.35682E+00  0.64860E+02    0.18750E+00  0.18750E+00 -0.37500E+00  0.00000E+00  0.00000E+00  0.00000E+00    0.25537E+02  0.15564E+02 -0.41101E+02 -0.18096E+01  0.38953E+01  0.95916E+01      982.00
  0.38059E+00  0.65149E+02    0.20000E+00  0.20000E+00 -0.40000E+00  0.00000E+00  0.00000E+00  0.00000E+00    0.25725E+02  0.15536E+02 -0.41261E+02 -0.18201E+01  0.38928E+01  0.96698E+01      982.00
  0.40434E+00  0.65426E+02    0.21250E+00  0.21250E+00 -0.42500E+00  0.00000E+00  0.00000E+00  0.00000E+00    0.25898E+02  0.15516E+02 -0.41414E+02 -0.18397E+01  0.38766E+01  0.97536E+01      982.00
  0.42807E+00  0.65681E+02    0.22500E+00  0.22500E+00 -0.45000E+00  0.00000E+00  0.00000E+00  0.00000E+00    0.26060E+02  0.15494E+02 -0.41554E+02 -0.18684E+01  0.38409E+01  0.98396E+01      982.00
  0.45180E+00  0.65927E+02    0.23750E+00  0.23750E+00 -0.47500E+00  0.00000E+00  0.00000E+00  0.00000E+00    0.26195E+02  0.15496E+02 -0.41691E+02 -0.18996E+01  0.37972E+01  0.99290E+01      982.00
  0.47551E+00  0.66164E+02    0.25000E+00  0.25000E+00 -0.50000E+00  0.00000E+00  0.00000E+00  0.00000E+00    0.26318E+02  0.15503E+02 -0.41821E+02 -0.19389E+01  0.37431E+01  0.10025E+02      982.00
  0.49921E+00  0.66383E+02    0.26250E+00  0.26250E+00 -0.52500E+00  0.00000E+00  0.00000E+00  0.00000E+00    0.26423E+02  0.15518E+02 -0.41941E+02 -0.19821E+01  0.36782E+01  0.10120E+02      982.00
  0.52291E+00  0.66576E+02    0.27500E+00  0.27500E+00 -0.55000E+00  0.00000E+00  0.00000E+00  0.00000E+00    0.26515E+02  0.15531E+02 -0.42045E+02 -0.20314E+01  0.35960E+01  0.10217E+02      982.00
  0.54659E+00  0.66776E+02    0.28750E+00  0.28750E+00 -0.57500E+00  0.00000E+00  0.00000E+00  0.00000E+00    0.26590E+02  0.15566E+02 -0.42156E+02 -0.20795E+01  0.35166E+01  0.10317E+02      982.00
  0.57026E+00  0.66964E+02    0.30000E+00  0.30000E+00 -0.60000E+00  0.00000E+00  0.00000E+00  0.00000E+00    0.26651E+02  0.15609E+02 -0.42261E+02 -0.21277E+01  0.34333E+01  0.10414E+02      982.00
  0.59393E+00  0.67139E+02    0.31250E+00  0.31250E+00 -0.62500E+00  0.00000E+00  0.00000E+00  0.00000E+00    0.26699E+02  0.15660E+02 -0.42359E+02 -0.21751E+01  0.33473E+01  0.10508E+02      982.00
  0.61759E+00  0.67307E+02    0.32500E+00  0.32500E+00 -0.65000E+00  0.00000E+00  0.00000E+00  0.00000E+00    0.26736E+02  0.15718E+02 -0.42454E+02 -0.22215E+01  0.32613E+01  0.10601E+02      982.00
  0.64124E+00  0.67466E+02    0.33750E+00  0.33750E+00 -0.67500E+00  0.00000E+00  0.00000E+00  0.00000E+00    0.26765E+02  0.15781E+02 -0.42545E+02 -0.22658E+01  0.31761E+01  0.10689E+02      982.00
  0.66489E+00  0.67617E+02    0.35000E+00  0.35000E+00 -0.70000E+00  0.00000E+00  0.00000E+00  0.00000E+00    0.26784E+02  0.15849E+02 -0.42633E+02 -0.23076E+01  0.30929E+01  0.10774E+02      982.00
  0.68853E+00  0.67761E+02    0.36250E+00  0.36250E+00 -0.72500E+00  0.00000E+00  0.00000E+00  0.00000E+00    0.26797E+02  0.15920E+02 -0.42717E+02 -0.23467E+01  0.30124E+01  0.10853E+02      982.00
  0.71217E+00  0.67896E+02    0.37500E+00  0.37500E+00 -0.75000E+00  0.00000E+00  0.00000E+00  0.00000E+00    0.26804E+02  0.15993E+02 -0.42797E+02 -0.23829E+01  0.29351E+01  0.10928E+02      982.00
  0.73581E+00  0.68025E+02    0.38750E+00  0.38750E+00 -0.77500E+00  0.00000E+00  0.00000E+00  0.00000E+00    0.26806E+02  0.16069E+02 -0.42875E+02 -0.24161E+01  0.28614E+01  0.10997E+02      982.00
  0.75945E+00  0.68146E+02    0.40000E+00  0.40000E+00 -0.80000E+00  0.00000E+00  0.00000E+00  0.00000E+00    0.26803E+02  0.16145E+02 -0.42948E+02 -0.24465E+01  0.27913E+01  0.11062E+02      982.00
  0.78308E+00  0.68261E+02    0.41250E+00  0.41250E+00 -0.82500E+00  0.00000E+00  0.00000E+00  0.00000E+00    0.26797E+02  0.16222E+02 -0.43019E+02 -0.24743E+01  0.27250E+01  0.11122E+02      982.00
  0.80671E+00  0.68369E+02    0.42500E+00  0.42500E+00 -0.85000E+00  0.00000E+00  0.00000E+00  0.00000E+00    0.26788E+02  0.16299E+02 -0.43087E+02 -0.24994E+01  0.26623E+01  0.11177E+02      982.00
  0.83035E+00  0.68471E+02    0.43750E+00  0.43750E+00 -0.87500E+00  0.00000E+00  0.00000E+00  0.00000E+00    0.26776E+02  0.16375E+02 -0.43151E+02 -0.25222E+01  0.26031E+01  0.11228E+02      982.00
  0.85398E+00  0.68567E+02    0.45000E+00  0.45000E+00 -0.90000E+00  0.00000E+00  0.00000E+00  0.00000E+00    0.26763E+02  0.16450E+02 -0.43213E+02 -0.25429E+01  0.25473E+01  0.11275E+02      982.00
  0.87761E+00  0.68658E+02    0.46250E+00  0.46250E+00 -0.92500E+00  0.00000E+00  0.00000E+00  0.00000E+00    0.26748E+02  0.16523E+02 -0.43271E+02 -0.25616E+01  0.24947E+01  0.11318E+02      982.00
  0.90125E+00  0.68743E+02    0.47500E+00  0.47500E+00 -0.95000E+00  0.00000E+00  0.00000E+00  0.00000E+00    0.26732E+02  0.16595E+02 -0.43327E+02 -0.25786E+01  0.24451E+01  0.11357E+02      982.00
  0.92488E+00  0.68823E+02    0.48750E+00  0.48750E+00 -0.97500E+00  0.00000E+00  0.00000E+00  0.00000E+00    0.26715E+02  0.16665E+02 -0.43380E+02 -0.25940E+01  0.23983E+01  0.11393E+02      982.00
  0.94852E+00  0.68904E+02    0.50000E+00  0.50000E+00 -0.10000E+01  0.00000E+00  0.00000E+00  0.00000E+00    0.26699E+02  0.16736E+02 -0.43435E+02 -0.26058E+01  0.23567E+01  0.11422E+02      982.00
