          Evm          Svm            E11          E22          E33          E23          E13          E12         SDEV11       SDEV22       SDEV33       SDEV23       SDEV13       SDEV12      TEMP
  0.00000E+00  0.56426E+02    0.00000E+00  0.00000E+00  0.00000E+00  0.00000E+00  0.00000E+00  0.00000E+00    0.17718E+02  0.15458E+02 -0.33176E+02 -0.16294E+01  0.50267E+01  0.14374E+02      982.00
  0.22048E-01  0.56372E+02    0.12500E-01  0.12500E-01 -0.25000E-01  0.00000E+00  0.00000E+00  0.00000E+00    0.17547E+02  0.15646E+02 -0.33193E+02 -0.18272E+01  0.46577E+01  0.14387E+02      982.00
  0.44129E-01  0.56456E+02    0.25000E-01  0.25000E-01 -0.50000E-01  0.00000E+00  0.00000E+00  0.00000E+00    0.17464E+02  0.15796E+02 -0.33260E+02 -0.19787E+01  0.43529E+01  0.14464E+02      982.00
  0.66221E-01  0.56664E+02    0.37500E-01  0.37500E-01 -0.75000E-01  0.00000E+00  0.00000E+00  0.00000E+00    0.17433E+02  0.15940E+02 -0.33373E+02 -0.21036E+01  0.40800E+01  0.14606E+02      982.00
  0.88307E-01  0.56970E+02    0.50000E-01  0.50000E-01 -0.10000E+00  0.00000E+00  0.00000E+00  0.00000E+00    0.17446E+02  0.16078E+02 -0.33524E+02 -0.22033E+01  0.38397E+01  0.14796E+02      982.00
  0.11037E+00  0.57348E+02    0.62500E-01  0.62500E-01 -0.12500E+00  0.00000E+00  0.00000E+00  0.00000E+00    0.17486E+02  0.16217E+02 -0.33703E+02 -0.22879E+01  0.36208E+01  0.15021E+02      982.00
  0.13241E+00  0.57778E+02    0.75000E-01  0.75000E-01 -0.15000E+00  0.00000E+00  0.00000E+00  0.00000E+00    0.17547E+02  0.16355E+02 -0.33903E+02 -0.23576E+01  0.34263E+01  0.15266E+02      982.00
  0.15442E+00  0.58235E+02    0.87500E-01  0.87500E-01 -0.17500E+00  0.00000E+00  0.00000E+00  0.00000E+00    0.17623E+02  0.16492E+02 -0.34115E+02 -0.24093E+01  0.32570E+01  0.15518E+02      982.00
  0.17638E+00  0.58705E+02    0.10000E+00  0.10000E+00 -0.20000E+00  0.00000E+00  0.00000E+00  0.00000E+00    0.17703E+02  0.16632E+02 -0.34335E+02 -0.24541E+01  0.31041E+01  0.15769E+02      982.00
  0.19832E+00  0.59179E+02    0.11250E+00  0.11250E+00 -0.22500E+00  0.00000E+00  0.00000E+00  0.00000E+00    0.17788E+02  0.16769E+02 -0.34557E+02 -0.24849E+01  0.29735E+01  0.16014E+02      982.00
  0.22022E+00  0.59637E+02    0.12500E+00  0.12500E+00 -0.25000E+00  0.00000E+00  0.00000E+00  0.00000E+00    0.17869E+02  0.16907E+02 -0.34776E+02 -0.25115E+01  0.28538E+01  0.16243E+02      982.00
  0.24208E+00  0.60089E+02    0.13750E+00  0.13750E+00 -0.27500E+00  0.00000E+00  0.00000E+00  0.00000E+00    0.17952E+02  0.17041E+02 -0.34993E+02 -0.25275E+01  0.27546E+01  0.16462E+02      982.00
  0.26392E+00  0.60509E+02    0.15000E+00  0.15000E+00 -0.30000E+00  0.00000E+00  0.00000E+00  0.00000E+00    0.18025E+02  0.17175E+02 -0.35199E+02 -0.25408E+01  0.26602E+01  0.16658E+02      982.00
  0.28574E+00  0.60918E+02    0.16250E+00  0.16250E+00 -0.32500E+00  0.00000E+00  0.00000E+00  0.00000E+00    0.18098E+02  0.17304E+02 -0.35402E+02 -0.25465E+01  0.25852E+01  0.16844E+02      982.00
  0.30753E+00  0.61302E+02    0.17500E+00  0.17500E+00 -0.35000E+00  0.00000E+00  0.00000E+00  0.00000E+00    0.18168E+02  0.17428E+02 -0.35595E+02 -0.25481E+01  0.25194E+01  0.17012E+02      982.00
  0.32930E+00  0.61650E+02    0.18750E+00  0.18750E+00 -0.37500E+00  0.00000E+00  0.00000E+00  0.00000E+00    0.18225E+02  0.17549E+02 -0.35774E+02 -0.25477E+01  0.24532E+01  0.17159E+02      982.00
  0.35106E+00  0.61983E+02    0.20000E+00  0.20000E+00 -0.40000E+00  0.00000E+00  0.00000E+00  0.00000E+00    0.18285E+02  0.17664E+02 -0.35949E+02 -0.25430E+01  0.24023E+01  0.17294E+02      982.00
  0.37281E+00  0.62291E+02    0.21250E+00  0.21250E+00 -0.42500E+00  0.00000E+00  0.00000E+00  0.00000E+00    0.18340E+02  0.17772E+02 -0.36112E+02 -0.25355E+01  0.23571E+01  0.17414E+02      982.00
  0.39455E+00  0.62571E+02    0.22500E+00  0.22500E+00 -0.45000E+00  0.00000E+00  0.00000E+00  0.00000E+00    0.18385E+02  0.17878E+02 -0.36264E+02 -0.25255E+01  0.23082E+01  0.17521E+02      982.00
  0.41629E+00  0.62833E+02    0.23750E+00  0.23750E+00 -0.47500E+00  0.00000E+00  0.00000E+00  0.00000E+00    0.18433E+02  0.17976E+02 -0.36408E+02 -0.25141E+01  0.22719E+01  0.17614E+02      982.00
  0.43802E+00  0.63069E+02    0.25000E+00  0.25000E+00 -0.50000E+00  0.00000E+00  0.00000E+00  0.00000E+00    0.18476E+02  0.18066E+02 -0.36542E+02 -0.25008E+01  0.22382E+01  0.17695E+02      982.00
  0.45974E+00  0.63295E+02    0.26250E+00  0.26250E+00 -0.52500E+00  0.00000E+00  0.00000E+00  0.00000E+00    0.18513E+02  0.18156E+02 -0.36669E+02 -0.24834E+01  0.21991E+01  0.17773E+02      982.00
  0.48147E+00  0.63497E+02    0.27500E+00  0.27500E+00 -0.55000E+00  0.00000E+00  0.00000E+00  0.00000E+00    0.18552E+02  0.18236E+02 -0.36788E+02 -0.24681E+01  0.21714E+01  0.17836E+02      982.00
  0.50319E+00  0.63684E+02    0.28750E+00  0.28750E+00 -0.57500E+00  0.00000E+00  0.00000E+00  0.00000E+00    0.18590E+02  0.18309E+02 -0.36899E+02 -0.24520E+01  0.21465E+01  0.17891E+02      982.00
  0.52492E+00  0.63826E+02    0.30000E+00  0.30000E+00 -0.60000E+00  0.00000E+00  0.00000E+00  0.00000E+00    0.18619E+02  0.18367E+02 -0.36985E+02 -0.24373E+01  0.21262E+01  0.17930E+02      982.00
  0.54665E+00  0.64001E+02    0.31250E+00  0.31250E+00 -0.62500E+00  0.00000E+00  0.00000E+00  0.00000E+00    0.18652E+02  0.18438E+02 -0.37089E+02 -0.24158E+01  0.20962E+01  0.17984E+02      982.00
  0.56838E+00  0.64147E+02    0.32500E+00  0.32500E+00 -0.65000E+00  0.00000E+00  0.00000E+00  0.00000E+00    0.18685E+02  0.18496E+02 -0.37181E+02 -0.23985E+01  0.20750E+01  0.18021E+02      982.00
  0.59012E+00  0.64281E+02    0.33750E+00  0.33750E+00 -0.67500E+00  0.00000E+00  0.00000E+00  0.00000E+00    0.18718E+02  0.18548E+02 -0.37266E+02 -0.23816E+01  0.20559E+01  0.18053E+02      982.00
  0.61186E+00  0.64405E+02    0.35000E+00  0.35000E+00 -0.70000E+00  0.00000E+00  0.00000E+00  0.00000E+00    0.18749E+02  0.18596E+02 -0.37345E+02 -0.23650E+01  0.20380E+01  0.18081E+02      982.00
  0.63360E+00  0.64519E+02    0.36250E+00  0.36250E+00 -0.72500E+00  0.00000E+00  0.00000E+00  0.00000E+00    0.18780E+02  0.18639E+02 -0.37419E+02 -0.23487E+01  0.20209E+01  0.18105E+02      982.00
  0.65535E+00  0.64624E+02    0.37500E+00  0.37500E+00 -0.75000E+00  0.00000E+00  0.00000E+00  0.00000E+00    0.18810E+02  0.18679E+02 -0.37489E+02 -0.23329E+01  0.20047E+01  0.18126E+02      982.00
  0.67711E+00  0.64722E+02    0.38750E+00  0.38750E+00 -0.77500E+00  0.00000E+00  0.00000E+00  0.00000E+00    0.18839E+02  0.18715E+02 -0.37554E+02 -0.23177E+01  0.19893E+01  0.18145E+02      982.00
  0.69887E+00  0.64812E+02    0.40000E+00  0.40000E+00 -0.80000E+00  0.00000E+00  0.00000E+00  0.00000E+00    0.18868E+02  0.18747E+02 -0.37615E+02 -0.23031E+01  0.19745E+01  0.18162E+02      982.00
  0.72063E+00  0.64896E+02    0.41250E+00  0.41250E+00 -0.82500E+00  0.00000E+00  0.00000E+00  0.00000E+00    0.18896E+02  0.18776E+02 -0.37672E+02 -0.22891E+01  0.19604E+01  0.18176E+02      982.00
  0.74240E+00  0.64974E+02    0.42500E+00  0.42500E+00 -0.85000E+00  0.00000E+00  0.00000E+00  0.00000E+00    0.18923E+02  0.18802E+02 -0.37725E+02 -0.22758E+01  0.19470E+01  0.18189E+02      982.00
  0.76417E+00  0.65046E+02    0.43750E+00  0.43750E+00 -0.87500E+00  0.00000E+00  0.00000E+00  0.00000E+00    0.18950E+02  0.18825E+02 -0.37775E+02 -0.22632E+01  0.19341E+01  0.18201E+02      982.00
  0.78595E+00  0.65113E+02    0.45000E+00  0.45000E+00 -0.90000E+00  0.00000E+00  0.00000E+00  0.00000E+00    0.18977E+02  0.18845E+02 -0.37822E+02 -0.22514E+01  0.19218E+01  0.18210E+02      982.00
  0.80773E+00  0.65176E+02    0.46250E+00  0.46250E+00 -0.92500E+00  0.00000E+00  0.00000E+00  0.00000E+00    0.19003E+02  0.18863E+02 -0.37866E+02 -0.22402E+01  0.19101E+01  0.18219E+02      982.00
  0.82952E+00  0.65223E+02    0.47500E+00  0.47500E+00 -0.95000E+00  0.00000E+00  0.00000E+00  0.00000E+00    0.19026E+02  0.18871E+02 -0.37898E+02 -0.22266E+01  0.18950E+01  0.18228E+02      982.00
  0.85131E+00  0.65280E+02    0.48750E+00  0.48750E+00 -0.97500E+00  0.00000E+00  0.00000E+00  0.00000E+00    0.19054E+02  0.18885E+02 -0.37939E+02 -0.22158E+01  0.18833E+01  0.18236E+02      982.00
  0.87310E+00  0.65301E+02    0.50000E+00  0.50000E+00 -0.10000E+01  0.00000E+00  0.00000E+00  0.00000E+00    0.19069E+02  0.18889E+02 -0.37958E+02 -0.22016E+01  0.18756E+01  0.18233E+02      982.00
