          Evm          Svm            E11          E22          E33          E23          E13          E12         SDEV11       SDEV22       SDEV33       SDEV23       SDEV13       SDEV12      TEMP
  0.00000E+00  0.54442E+02    0.00000E+00  0.00000E+00  0.00000E+00  0.00000E+00  0.00000E+00  0.00000E+00    0.14469E+02  0.18400E+02 -0.32870E+02 -0.30605E+01  0.16046E+01  0.12722E+02      982.00
  0.22641E-01  0.54321E+02    0.12500E-01  0.12500E-01 -0.25000E-01  0.00000E+00  0.00000E+00  0.00000E+00    0.14403E+02  0.18442E+02 -0.32844E+02 -0.28516E+01  0.19340E+01  0.12592E+02      982.00
  0.45315E-01  0.54215E+02    0.25000E-01  0.25000E-01 -0.50000E-01  0.00000E+00  0.00000E+00  0.00000E+00    0.14398E+02  0.18424E+02 -0.32821E+02 -0.25954E+01  0.21859E+01  0.12501E+02      982.00
  0.68017E-01  0.54195E+02    0.37500E-01  0.37500E-01 -0.75000E-01  0.00000E+00  0.00000E+00  0.00000E+00    0.14416E+02  0.18411E+02 -0.32827E+02 -0.23512E+01  0.23877E+01  0.12473E+02      982.00
  0.90732E-01  0.54323E+02    0.50000E-01  0.50000E-01 -0.10000E+00  0.00000E+00  0.00000E+00  0.00000E+00    0.14464E+02  0.18432E+02 -0.32895E+02 -0.21180E+01  0.25552E+01  0.12535E+02      982.00
  0.11344E+00  0.54572E+02    0.62500E-01  0.62500E-01 -0.12500E+00  0.00000E+00  0.00000E+00  0.00000E+00    0.14525E+02  0.18494E+02 -0.33019E+02 -0.19035E+01  0.26978E+01  0.12656E+02      982.00
  0.13613E+00  0.54930E+02    0.75000E-01  0.75000E-01 -0.15000E+00  0.00000E+00  0.00000E+00  0.00000E+00    0.14600E+02  0.18591E+02 -0.33191E+02 -0.17088E+01  0.28241E+01  0.12831E+02      982.00
  0.15879E+00  0.55370E+02    0.87500E-01  0.87500E-01 -0.17500E+00  0.00000E+00  0.00000E+00  0.00000E+00    0.14693E+02  0.18710E+02 -0.33403E+02 -0.15282E+01  0.29374E+01  0.13043E+02      982.00
  0.18141E+00  0.55838E+02    0.10000E+00  0.10000E+00 -0.20000E+00  0.00000E+00  0.00000E+00  0.00000E+00    0.14792E+02  0.18836E+02 -0.33628E+02 -0.13627E+01  0.30382E+01  0.13266E+02      982.00
  0.20400E+00  0.56334E+02    0.11250E+00  0.11250E+00 -0.22500E+00  0.00000E+00  0.00000E+00  0.00000E+00    0.14901E+02  0.18970E+02 -0.33871E+02 -0.12262E+01  0.31279E+01  0.13489E+02      982.00
  0.22654E+00  0.56836E+02    0.12500E+00  0.12500E+00 -0.25000E+00  0.00000E+00  0.00000E+00  0.00000E+00    0.15018E+02  0.19102E+02 -0.34121E+02 -0.11126E+01  0.32062E+01  0.13708E+02      982.00
  0.24906E+00  0.57318E+02    0.13750E+00  0.13750E+00 -0.27500E+00  0.00000E+00  0.00000E+00  0.00000E+00    0.15139E+02  0.19224E+02 -0.34363E+02 -0.10174E+01  0.32706E+01  0.13914E+02      982.00
  0.27154E+00  0.57784E+02    0.15000E+00  0.15000E+00 -0.30000E+00  0.00000E+00  0.00000E+00  0.00000E+00    0.15268E+02  0.19333E+02 -0.34600E+02 -0.92868E+00  0.33239E+01  0.14109E+02      982.00
  0.29399E+00  0.58230E+02    0.16250E+00  0.16250E+00 -0.32500E+00  0.00000E+00  0.00000E+00  0.00000E+00    0.15398E+02  0.19435E+02 -0.34833E+02 -0.86922E+00  0.33637E+01  0.14286E+02      982.00
  0.31642E+00  0.58650E+02    0.17500E+00  0.17500E+00 -0.35000E+00  0.00000E+00  0.00000E+00  0.00000E+00    0.15531E+02  0.19526E+02 -0.35057E+02 -0.82572E+00  0.33912E+01  0.14447E+02      982.00
  0.33884E+00  0.59055E+02    0.18750E+00  0.18750E+00 -0.37500E+00  0.00000E+00  0.00000E+00  0.00000E+00    0.15667E+02  0.19608E+02 -0.35275E+02 -0.79371E+00  0.34065E+01  0.14599E+02      982.00
  0.36124E+00  0.59429E+02    0.20000E+00  0.20000E+00 -0.40000E+00  0.00000E+00  0.00000E+00  0.00000E+00    0.15802E+02  0.19679E+02 -0.35481E+02 -0.77459E+00  0.34102E+01  0.14736E+02      982.00
  0.38363E+00  0.59776E+02    0.21250E+00  0.21250E+00 -0.42500E+00  0.00000E+00  0.00000E+00  0.00000E+00    0.15940E+02  0.19730E+02 -0.35670E+02 -0.75606E+00  0.34056E+01  0.14867E+02      982.00
  0.40600E+00  0.60104E+02    0.22500E+00  0.22500E+00 -0.45000E+00  0.00000E+00  0.00000E+00  0.00000E+00    0.16073E+02  0.19780E+02 -0.35853E+02 -0.75730E+00  0.33874E+01  0.14987E+02      982.00
  0.42837E+00  0.60413E+02    0.23750E+00  0.23750E+00 -0.47500E+00  0.00000E+00  0.00000E+00  0.00000E+00    0.16204E+02  0.19823E+02 -0.36027E+02 -0.76722E+00  0.33589E+01  0.15098E+02      982.00
  0.45074E+00  0.60707E+02    0.25000E+00  0.25000E+00 -0.50000E+00  0.00000E+00  0.00000E+00  0.00000E+00    0.16334E+02  0.19861E+02 -0.36194E+02 -0.78451E+00  0.33215E+01  0.15205E+02      982.00
  0.47310E+00  0.60982E+02    0.26250E+00  0.26250E+00 -0.52500E+00  0.00000E+00  0.00000E+00  0.00000E+00    0.16458E+02  0.19891E+02 -0.36349E+02 -0.80879E+00  0.32752E+01  0.15308E+02      982.00
  0.49545E+00  0.61247E+02    0.27500E+00  0.27500E+00 -0.55000E+00  0.00000E+00  0.00000E+00  0.00000E+00    0.16582E+02  0.19917E+02 -0.36498E+02 -0.84025E+00  0.32208E+01  0.15409E+02      982.00
  0.51779E+00  0.61500E+02    0.28750E+00  0.28750E+00 -0.57500E+00  0.00000E+00  0.00000E+00  0.00000E+00    0.16701E+02  0.19938E+02 -0.36639E+02 -0.87769E+00  0.31577E+01  0.15510E+02      982.00
  0.54014E+00  0.61739E+02    0.30000E+00  0.30000E+00 -0.60000E+00  0.00000E+00  0.00000E+00  0.00000E+00    0.16817E+02  0.19955E+02 -0.36772E+02 -0.92203E+00  0.30871E+01  0.15608E+02      982.00
  0.56247E+00  0.61973E+02    0.31250E+00  0.31250E+00 -0.62500E+00  0.00000E+00  0.00000E+00  0.00000E+00    0.16929E+02  0.19971E+02 -0.36900E+02 -0.97216E+00  0.30101E+01  0.15707E+02      982.00
  0.58480E+00  0.62197E+02    0.32500E+00  0.32500E+00 -0.65000E+00  0.00000E+00  0.00000E+00  0.00000E+00    0.17037E+02  0.19983E+02 -0.37020E+02 -0.10267E+01  0.29267E+01  0.15806E+02      982.00
  0.60712E+00  0.62422E+02    0.33750E+00  0.33750E+00 -0.67500E+00  0.00000E+00  0.00000E+00  0.00000E+00    0.17137E+02  0.19999E+02 -0.37136E+02 -0.10848E+01  0.28470E+01  0.15912E+02      982.00
  0.62943E+00  0.62628E+02    0.35000E+00  0.35000E+00 -0.70000E+00  0.00000E+00  0.00000E+00  0.00000E+00    0.17236E+02  0.20003E+02 -0.37239E+02 -0.11470E+01  0.27549E+01  0.16016E+02      982.00
  0.65173E+00  0.62840E+02    0.36250E+00  0.36250E+00 -0.72500E+00  0.00000E+00  0.00000E+00  0.00000E+00    0.17335E+02  0.20010E+02 -0.37346E+02 -0.12140E+01  0.26594E+01  0.16122E+02      982.00
  0.67401E+00  0.63038E+02    0.37500E+00  0.37500E+00 -0.75000E+00  0.00000E+00  0.00000E+00  0.00000E+00    0.17427E+02  0.20013E+02 -0.37440E+02 -0.12825E+01  0.25603E+01  0.16230E+02      982.00
  0.69629E+00  0.63243E+02    0.38750E+00  0.38750E+00 -0.77500E+00  0.00000E+00  0.00000E+00  0.00000E+00    0.17517E+02  0.20014E+02 -0.37531E+02 -0.13497E+01  0.24686E+01  0.16349E+02      982.00
  0.71854E+00  0.63432E+02    0.40000E+00  0.40000E+00 -0.80000E+00  0.00000E+00  0.00000E+00  0.00000E+00    0.17602E+02  0.20013E+02 -0.37615E+02 -0.14209E+01  0.23706E+01  0.16460E+02      982.00
  0.74078E+00  0.63617E+02    0.41250E+00  0.41250E+00 -0.82500E+00  0.00000E+00  0.00000E+00  0.00000E+00    0.17684E+02  0.20009E+02 -0.37693E+02 -0.14909E+01  0.22729E+01  0.16575E+02      982.00
  0.76300E+00  0.63794E+02    0.42500E+00  0.42500E+00 -0.85000E+00  0.00000E+00  0.00000E+00  0.00000E+00    0.17762E+02  0.20003E+02 -0.37765E+02 -0.15601E+01  0.21793E+01  0.16688E+02      982.00
  0.78519E+00  0.63965E+02    0.43750E+00  0.43750E+00 -0.87500E+00  0.00000E+00  0.00000E+00  0.00000E+00    0.17837E+02  0.19995E+02 -0.37831E+02 -0.16270E+01  0.20899E+01  0.16801E+02      982.00
  0.80737E+00  0.64144E+02    0.45000E+00  0.45000E+00 -0.90000E+00  0.00000E+00  0.00000E+00  0.00000E+00    0.17911E+02  0.19985E+02 -0.37896E+02 -0.16904E+01  0.20089E+01  0.16925E+02      982.00
  0.82953E+00  0.64309E+02    0.46250E+00  0.46250E+00 -0.92500E+00  0.00000E+00  0.00000E+00  0.00000E+00    0.17987E+02  0.19966E+02 -0.37953E+02 -0.17396E+01  0.19415E+01  0.17041E+02      982.00
  0.85166E+00  0.64402E+02    0.47500E+00  0.47500E+00 -0.95000E+00  0.00000E+00  0.00000E+00  0.00000E+00    0.18037E+02  0.19936E+02 -0.37973E+02 -0.17893E+01  0.18641E+01  0.17131E+02      982.00
  0.87377E+00  0.64505E+02    0.48750E+00  0.48750E+00 -0.97500E+00  0.00000E+00  0.00000E+00  0.00000E+00    0.18095E+02  0.19902E+02 -0.37998E+02 -0.18266E+01  0.18051E+01  0.17225E+02      982.00
  0.89586E+00  0.64602E+02    0.50000E+00  0.50000E+00 -0.10000E+01  0.00000E+00  0.00000E+00  0.00000E+00    0.18153E+02  0.19865E+02 -0.38018E+02 -0.18554E+01  0.17580E+01  0.17317E+02      982.00
