          Evm          Svm            E11          E22          E33          E23          E13          E12         SDEV11       SDEV22       SDEV33       SDEV23       SDEV13       SDEV12      TEMP
  0.00000E+00  0.61045E+02    0.00000E+00  0.00000E+00  0.00000E+00  0.00000E+00  0.00000E+00  0.00000E+00    0.16760E+02  0.21195E+02 -0.37955E+02 -0.52946E+01 -0.58324E+01 -0.97349E+01      982.00
  0.23316E-01  0.61031E+02    0.12500E-01  0.12500E-01 -0.25000E-01  0.00000E+00  0.00000E+00  0.00000E+00    0.16900E+02  0.21155E+02 -0.38056E+02 -0.53921E+01 -0.55880E+01 -0.95176E+01      982.00
  0.46699E-01  0.61074E+02    0.25000E-01  0.25000E-01 -0.50000E-01  0.00000E+00  0.00000E+00  0.00000E+00    0.17044E+02  0.21128E+02 -0.38172E+02 -0.54743E+01 -0.54045E+01 -0.93357E+01      982.00
  0.70137E-01  0.61179E+02    0.37500E-01  0.37500E-01 -0.75000E-01  0.00000E+00  0.00000E+00  0.00000E+00    0.17180E+02  0.21129E+02 -0.38309E+02 -0.55420E+01 -0.52649E+01 -0.91972E+01      982.00
  0.93619E-01  0.61334E+02    0.50000E-01  0.50000E-01 -0.10000E+00  0.00000E+00  0.00000E+00  0.00000E+00    0.17305E+02  0.21159E+02 -0.38464E+02 -0.55936E+01 -0.51475E+01 -0.91015E+01      982.00
  0.11714E+00  0.61543E+02    0.62500E-01  0.62500E-01 -0.12500E+00  0.00000E+00  0.00000E+00  0.00000E+00    0.17418E+02  0.21223E+02 -0.38642E+02 -0.56199E+01 -0.50553E+01 -0.90493E+01      982.00
  0.14068E+00  0.61796E+02    0.75000E-01  0.75000E-01 -0.15000E+00  0.00000E+00  0.00000E+00  0.00000E+00    0.17522E+02  0.21316E+02 -0.38838E+02 -0.56265E+01 -0.49768E+01 -0.90312E+01      982.00
  0.16425E+00  0.62086E+02    0.87500E-01  0.87500E-01 -0.17500E+00  0.00000E+00  0.00000E+00  0.00000E+00    0.17619E+02  0.21434E+02 -0.39053E+02 -0.56170E+01 -0.49086E+01 -0.90412E+01      982.00
  0.18784E+00  0.62409E+02    0.10000E+00  0.10000E+00 -0.20000E+00  0.00000E+00  0.00000E+00  0.00000E+00    0.17712E+02  0.21573E+02 -0.39284E+02 -0.55948E+01 -0.48489E+01 -0.90731E+01      982.00
  0.21144E+00  0.62759E+02    0.11250E+00  0.11250E+00 -0.22500E+00  0.00000E+00  0.00000E+00  0.00000E+00    0.17803E+02  0.21726E+02 -0.39529E+02 -0.55629E+01 -0.47968E+01 -0.91210E+01      982.00
  0.23506E+00  0.63128E+02    0.12500E+00  0.12500E+00 -0.25000E+00  0.00000E+00  0.00000E+00  0.00000E+00    0.17894E+02  0.21890E+02 -0.39784E+02 -0.55238E+01 -0.47514E+01 -0.91794E+01      982.00
  0.25870E+00  0.63511E+02    0.13750E+00  0.13750E+00 -0.27500E+00  0.00000E+00  0.00000E+00  0.00000E+00    0.17986E+02  0.22059E+02 -0.40045E+02 -0.54805E+01 -0.47127E+01 -0.92446E+01      982.00
  0.28234E+00  0.63908E+02    0.15000E+00  0.15000E+00 -0.30000E+00  0.00000E+00  0.00000E+00  0.00000E+00    0.18075E+02  0.22239E+02 -0.40313E+02 -0.54341E+01 -0.46764E+01 -0.93160E+01      982.00
  0.30599E+00  0.64291E+02    0.16250E+00  0.16250E+00 -0.32500E+00  0.00000E+00  0.00000E+00  0.00000E+00    0.18171E+02  0.22405E+02 -0.40576E+02 -0.53822E+01 -0.46453E+01 -0.93785E+01      982.00
  0.32966E+00  0.64687E+02    0.17500E+00  0.17500E+00 -0.35000E+00  0.00000E+00  0.00000E+00  0.00000E+00    0.18268E+02  0.22577E+02 -0.40845E+02 -0.53277E+01 -0.46171E+01 -0.94443E+01      982.00
  0.35334E+00  0.65055E+02    0.18750E+00  0.18750E+00 -0.37500E+00  0.00000E+00  0.00000E+00  0.00000E+00    0.18367E+02  0.22731E+02 -0.41098E+02 -0.52750E+01 -0.45948E+01 -0.94994E+01      982.00
  0.37703E+00  0.65409E+02    0.20000E+00  0.20000E+00 -0.40000E+00  0.00000E+00  0.00000E+00  0.00000E+00    0.18467E+02  0.22874E+02 -0.41342E+02 -0.52231E+01 -0.45758E+01 -0.95492E+01      982.00
  0.40073E+00  0.65762E+02    0.21250E+00  0.21250E+00 -0.42500E+00  0.00000E+00  0.00000E+00  0.00000E+00    0.18568E+02  0.23017E+02 -0.41586E+02 -0.51664E+01 -0.45579E+01 -0.95957E+01      982.00
  0.42445E+00  0.66077E+02    0.22500E+00  0.22500E+00 -0.45000E+00  0.00000E+00  0.00000E+00  0.00000E+00    0.18664E+02  0.23142E+02 -0.41806E+02 -0.51150E+01 -0.45418E+01 -0.96329E+01      982.00
  0.44817E+00  0.66387E+02    0.23750E+00  0.23750E+00 -0.47500E+00  0.00000E+00  0.00000E+00  0.00000E+00    0.18761E+02  0.23260E+02 -0.42021E+02 -0.50686E+01 -0.45302E+01 -0.96674E+01      982.00
  0.47191E+00  0.66663E+02    0.25000E+00  0.25000E+00 -0.50000E+00  0.00000E+00  0.00000E+00  0.00000E+00    0.18852E+02  0.23364E+02 -0.42216E+02 -0.50209E+01 -0.45162E+01 -0.96943E+01      982.00
  0.49566E+00  0.66921E+02    0.26250E+00  0.26250E+00 -0.52500E+00  0.00000E+00  0.00000E+00  0.00000E+00    0.18938E+02  0.23461E+02 -0.42399E+02 -0.49746E+01 -0.45031E+01 -0.97170E+01      982.00
  0.51942E+00  0.67162E+02    0.27500E+00  0.27500E+00 -0.55000E+00  0.00000E+00  0.00000E+00  0.00000E+00    0.19020E+02  0.23551E+02 -0.42570E+02 -0.49299E+01 -0.44904E+01 -0.97360E+01      982.00
  0.54318E+00  0.67387E+02    0.28750E+00  0.28750E+00 -0.57500E+00  0.00000E+00  0.00000E+00  0.00000E+00    0.19096E+02  0.23635E+02 -0.42731E+02 -0.48869E+01 -0.44785E+01 -0.97529E+01      982.00
  0.56696E+00  0.67594E+02    0.30000E+00  0.30000E+00 -0.60000E+00  0.00000E+00  0.00000E+00  0.00000E+00    0.19169E+02  0.23712E+02 -0.42880E+02 -0.48450E+01 -0.44662E+01 -0.97657E+01      982.00
  0.59075E+00  0.67785E+02    0.31250E+00  0.31250E+00 -0.62500E+00  0.00000E+00  0.00000E+00  0.00000E+00    0.19236E+02  0.23783E+02 -0.43019E+02 -0.48044E+01 -0.44542E+01 -0.97761E+01      982.00
  0.61455E+00  0.67962E+02    0.32500E+00  0.32500E+00 -0.65000E+00  0.00000E+00  0.00000E+00  0.00000E+00    0.19299E+02  0.23848E+02 -0.43147E+02 -0.47650E+01 -0.44425E+01 -0.97846E+01      982.00
  0.63836E+00  0.68131E+02    0.33750E+00  0.33750E+00 -0.67500E+00  0.00000E+00  0.00000E+00  0.00000E+00    0.19359E+02  0.23910E+02 -0.43269E+02 -0.47297E+01 -0.44335E+01 -0.97921E+01      982.00
  0.66218E+00  0.68282E+02    0.35000E+00  0.35000E+00 -0.70000E+00  0.00000E+00  0.00000E+00  0.00000E+00    0.19413E+02  0.23967E+02 -0.43380E+02 -0.46926E+01 -0.44224E+01 -0.97977E+01      982.00
  0.68600E+00  0.68421E+02    0.36250E+00  0.36250E+00 -0.72500E+00  0.00000E+00  0.00000E+00  0.00000E+00    0.19462E+02  0.24021E+02 -0.43483E+02 -0.46563E+01 -0.44113E+01 -0.98021E+01      982.00
  0.70983E+00  0.68550E+02    0.37500E+00  0.37500E+00 -0.75000E+00  0.00000E+00  0.00000E+00  0.00000E+00    0.19507E+02  0.24071E+02 -0.43578E+02 -0.46209E+01 -0.44005E+01 -0.98057E+01      982.00
  0.73367E+00  0.68656E+02    0.38750E+00  0.38750E+00 -0.77500E+00  0.00000E+00  0.00000E+00  0.00000E+00    0.19541E+02  0.24113E+02 -0.43654E+02 -0.45949E+01 -0.43948E+01 -0.98122E+01      982.00
  0.75752E+00  0.68768E+02    0.40000E+00  0.40000E+00 -0.80000E+00  0.00000E+00  0.00000E+00  0.00000E+00    0.19578E+02  0.24159E+02 -0.43738E+02 -0.45613E+01 -0.43842E+01 -0.98145E+01      982.00
  0.78137E+00  0.68871E+02    0.41250E+00  0.41250E+00 -0.82500E+00  0.00000E+00  0.00000E+00  0.00000E+00    0.19612E+02  0.24203E+02 -0.43815E+02 -0.45279E+01 -0.43742E+01 -0.98164E+01      982.00
  0.80522E+00  0.68967E+02    0.42500E+00  0.42500E+00 -0.85000E+00  0.00000E+00  0.00000E+00  0.00000E+00    0.19641E+02  0.24245E+02 -0.43886E+02 -0.44951E+01 -0.43647E+01 -0.98180E+01      982.00
  0.82909E+00  0.69055E+02    0.43750E+00  0.43750E+00 -0.87500E+00  0.00000E+00  0.00000E+00  0.00000E+00    0.19667E+02  0.24286E+02 -0.43953E+02 -0.44629E+01 -0.43558E+01 -0.98194E+01      982.00
  0.85295E+00  0.69068E+02    0.45000E+00  0.45000E+00 -0.90000E+00  0.00000E+00  0.00000E+00  0.00000E+00    0.19666E+02  0.24308E+02 -0.43974E+02 -0.44207E+01 -0.43229E+01 -0.98111E+01      982.00
  0.87683E+00  0.69083E+02    0.46250E+00  0.46250E+00 -0.92500E+00  0.00000E+00  0.00000E+00  0.00000E+00    0.19669E+02  0.24328E+02 -0.43997E+02 -0.43745E+01 -0.42963E+01 -0.97978E+01      982.00
  0.90071E+00  0.69096E+02    0.47500E+00  0.47500E+00 -0.95000E+00  0.00000E+00  0.00000E+00  0.00000E+00    0.19670E+02  0.24348E+02 -0.44018E+02 -0.43289E+01 -0.42716E+01 -0.97864E+01      982.00
  0.92460E+00  0.69108E+02    0.48750E+00  0.48750E+00 -0.97500E+00  0.00000E+00  0.00000E+00  0.00000E+00    0.19669E+02  0.24368E+02 -0.44037E+02 -0.42844E+01 -0.42482E+01 -0.97763E+01      982.00
  0.94850E+00  0.69119E+02    0.50000E+00  0.50000E+00 -0.10000E+01  0.00000E+00  0.00000E+00  0.00000E+00    0.19666E+02  0.24389E+02 -0.44055E+02 -0.42411E+01 -0.42260E+01 -0.97676E+01      982.00
