          Evm          Svm            E11          E22          E33          E23          E13          E12         SDEV11       SDEV22       SDEV33       SDEV23       SDEV13       SDEV12      TEMP
  0.00000E+00  0.63642E+02    0.00000E+00  0.00000E+00  0.00000E+00  0.00000E+00  0.00000E+00  0.00000E+00    0.20836E+02  0.20568E+02 -0.41405E+02 -0.11132E+01  0.15162E+01  0.77961E+01      982.00
  0.24397E-01  0.63658E+02    0.12500E-01  0.12500E-01 -0.25000E-01  0.00000E+00  0.00000E+00  0.00000E+00    0.21220E+02  0.20176E+02 -0.41397E+02 -0.10162E+01  0.14011E+01  0.78896E+01      982.00
  0.48783E-01  0.63696E+02    0.25000E-01  0.25000E-01 -0.50000E-01  0.00000E+00  0.00000E+00  0.00000E+00    0.21479E+02  0.19919E+02 -0.41398E+02 -0.92961E+00  0.12531E+01  0.79984E+01      982.00
  0.73156E-01  0.63764E+02    0.37500E-01  0.37500E-01 -0.75000E-01  0.00000E+00  0.00000E+00  0.00000E+00    0.21684E+02  0.19730E+02 -0.41414E+02 -0.83986E+00  0.11041E+01  0.81273E+01      982.00
  0.97512E-01  0.63865E+02    0.50000E-01  0.50000E-01 -0.10000E+00  0.00000E+00  0.00000E+00  0.00000E+00    0.21854E+02  0.19592E+02 -0.41446E+02 -0.74761E+00  0.95971E+00  0.82741E+01      982.00
  0.12185E+00  0.64000E+02    0.62500E-01  0.62500E-01 -0.12500E+00  0.00000E+00  0.00000E+00  0.00000E+00    0.22003E+02  0.19494E+02 -0.41497E+02 -0.65416E+00  0.82212E+00  0.84352E+01      982.00
  0.14616E+00  0.64168E+02    0.75000E-01  0.75000E-01 -0.15000E+00  0.00000E+00  0.00000E+00  0.00000E+00    0.22138E+02  0.19428E+02 -0.41566E+02 -0.56098E+00  0.69197E+00  0.86067E+01      982.00
  0.17045E+00  0.64365E+02    0.87500E-01  0.87500E-01 -0.17500E+00  0.00000E+00  0.00000E+00  0.00000E+00    0.22266E+02  0.19386E+02 -0.41652E+02 -0.46906E+00  0.56918E+00  0.87845E+01      982.00
  0.19472E+00  0.64586E+02    0.10000E+00  0.10000E+00 -0.20000E+00  0.00000E+00  0.00000E+00  0.00000E+00    0.22389E+02  0.19363E+02 -0.41752E+02 -0.37891E+00  0.45279E+00  0.89665E+01      982.00
  0.21896E+00  0.64825E+02    0.11250E+00  0.11250E+00 -0.22500E+00  0.00000E+00  0.00000E+00  0.00000E+00    0.22503E+02  0.19362E+02 -0.41865E+02 -0.29010E+00  0.33870E+00  0.91451E+01      982.00
  0.24318E+00  0.65069E+02    0.12500E+00  0.12500E+00 -0.25000E+00  0.00000E+00  0.00000E+00  0.00000E+00    0.22614E+02  0.19367E+02 -0.41980E+02 -0.20623E+00  0.23426E+00  0.93169E+01      982.00
  0.26738E+00  0.65337E+02    0.13750E+00  0.13750E+00 -0.27500E+00  0.00000E+00  0.00000E+00  0.00000E+00    0.22725E+02  0.19386E+02 -0.42111E+02 -0.12210E+00  0.13091E+00  0.94941E+01      982.00
  0.29154E+00  0.65601E+02    0.15000E+00  0.15000E+00 -0.30000E+00  0.00000E+00  0.00000E+00  0.00000E+00    0.22826E+02  0.19418E+02 -0.42244E+02 -0.40116E-01  0.29920E-01  0.96515E+01      982.00
  0.31569E+00  0.65881E+02    0.16250E+00  0.16250E+00 -0.32500E+00  0.00000E+00  0.00000E+00  0.00000E+00    0.22928E+02  0.19458E+02 -0.42386E+02  0.44646E-01 -0.72752E-01  0.98136E+01      982.00
  0.33982E+00  0.66138E+02    0.17500E+00  0.17500E+00 -0.35000E+00  0.00000E+00  0.00000E+00  0.00000E+00    0.23016E+02  0.19504E+02 -0.42520E+02  0.12221E+00 -0.16679E+00  0.99485E+01      982.00
  0.36393E+00  0.66414E+02    0.18750E+00  0.18750E+00 -0.37500E+00  0.00000E+00  0.00000E+00  0.00000E+00    0.23103E+02  0.19561E+02 -0.42665E+02  0.21012E+00 -0.27249E+00  0.10089E+02      982.00
  0.38802E+00  0.66647E+02    0.20000E+00  0.20000E+00 -0.40000E+00  0.00000E+00  0.00000E+00  0.00000E+00    0.23173E+02  0.19616E+02 -0.42789E+02  0.28428E+00 -0.36103E+00  0.10200E+02      982.00
  0.41209E+00  0.66866E+02    0.21250E+00  0.21250E+00 -0.42500E+00  0.00000E+00  0.00000E+00  0.00000E+00    0.23233E+02  0.19674E+02 -0.42907E+02  0.35703E+00 -0.44692E+00  0.10301E+02      982.00
  0.43616E+00  0.67072E+02    0.22500E+00  0.22500E+00 -0.45000E+00  0.00000E+00  0.00000E+00  0.00000E+00    0.23285E+02  0.19733E+02 -0.43018E+02  0.42881E+00 -0.53052E+00  0.10393E+02      982.00
  0.46021E+00  0.67263E+02    0.23750E+00  0.23750E+00 -0.47500E+00  0.00000E+00  0.00000E+00  0.00000E+00    0.23329E+02  0.19792E+02 -0.43121E+02  0.49994E+00 -0.61207E+00  0.10477E+02      982.00
  0.48425E+00  0.67439E+02    0.25000E+00  0.25000E+00 -0.50000E+00  0.00000E+00  0.00000E+00  0.00000E+00    0.23366E+02  0.19850E+02 -0.43216E+02  0.57070E+00 -0.69183E+00  0.10554E+02      982.00
  0.50828E+00  0.67593E+02    0.26250E+00  0.26250E+00 -0.52500E+00  0.00000E+00  0.00000E+00  0.00000E+00    0.23400E+02  0.19898E+02 -0.43298E+02  0.62785E+00 -0.75325E+00  0.10625E+02      982.00
  0.53230E+00  0.67745E+02    0.27500E+00  0.27500E+00 -0.55000E+00  0.00000E+00  0.00000E+00  0.00000E+00    0.23427E+02  0.19952E+02 -0.43379E+02  0.69842E+00 -0.82969E+00  0.10692E+02      982.00
  0.55631E+00  0.67884E+02    0.28750E+00  0.28750E+00 -0.57500E+00  0.00000E+00  0.00000E+00  0.00000E+00    0.23447E+02  0.20005E+02 -0.43452E+02  0.76907E+00 -0.90540E+00  0.10754E+02      982.00
  0.58032E+00  0.68010E+02    0.30000E+00  0.30000E+00 -0.60000E+00  0.00000E+00  0.00000E+00  0.00000E+00    0.23462E+02  0.20056E+02 -0.43518E+02  0.83994E+00 -0.98028E+00  0.10811E+02      982.00
  0.60431E+00  0.68125E+02    0.31250E+00  0.31250E+00 -0.62500E+00  0.00000E+00  0.00000E+00  0.00000E+00    0.23472E+02  0.20105E+02 -0.43576E+02  0.91116E+00 -0.10545E+01  0.10864E+02      982.00
  0.62830E+00  0.68228E+02    0.32500E+00  0.32500E+00 -0.65000E+00  0.00000E+00  0.00000E+00  0.00000E+00    0.23477E+02  0.20151E+02 -0.43628E+02  0.98278E+00 -0.11281E+01  0.10914E+02      982.00
  0.65228E+00  0.68322E+02    0.33750E+00  0.33750E+00 -0.67500E+00  0.00000E+00  0.00000E+00  0.00000E+00    0.23478E+02  0.20196E+02 -0.43674E+02  0.10548E+01 -0.12012E+01  0.10961E+02      982.00
  0.67625E+00  0.68406E+02    0.35000E+00  0.35000E+00 -0.70000E+00  0.00000E+00  0.00000E+00  0.00000E+00    0.23476E+02  0.20237E+02 -0.43713E+02  0.11273E+01 -0.12739E+01  0.11006E+02      982.00
  0.70021E+00  0.68482E+02    0.36250E+00  0.36250E+00 -0.72500E+00  0.00000E+00  0.00000E+00  0.00000E+00    0.23471E+02  0.20277E+02 -0.43747E+02  0.12002E+01 -0.13463E+01  0.11048E+02      982.00
  0.72417E+00  0.68549E+02    0.37500E+00  0.37500E+00 -0.75000E+00  0.00000E+00  0.00000E+00  0.00000E+00    0.23463E+02  0.20313E+02 -0.43776E+02  0.12735E+01 -0.14183E+01  0.11088E+02      982.00
  0.74812E+00  0.68609E+02    0.38750E+00  0.38750E+00 -0.77500E+00  0.00000E+00  0.00000E+00  0.00000E+00    0.23452E+02  0.20348E+02 -0.43800E+02  0.13471E+01 -0.14900E+01  0.11128E+02      982.00
  0.77206E+00  0.68663E+02    0.40000E+00  0.40000E+00 -0.80000E+00  0.00000E+00  0.00000E+00  0.00000E+00    0.23439E+02  0.20380E+02 -0.43819E+02  0.14209E+01 -0.15613E+01  0.11166E+02      982.00
  0.79599E+00  0.68711E+02    0.41250E+00  0.41250E+00 -0.82500E+00  0.00000E+00  0.00000E+00  0.00000E+00    0.23424E+02  0.20410E+02 -0.43834E+02  0.14949E+01 -0.16322E+01  0.11203E+02      982.00
  0.81991E+00  0.68753E+02    0.42500E+00  0.42500E+00 -0.85000E+00  0.00000E+00  0.00000E+00  0.00000E+00    0.23408E+02  0.20437E+02 -0.43845E+02  0.15689E+01 -0.17026E+01  0.11240E+02      982.00
  0.84383E+00  0.68791E+02    0.43750E+00  0.43750E+00 -0.87500E+00  0.00000E+00  0.00000E+00  0.00000E+00    0.23390E+02  0.20462E+02 -0.43852E+02  0.16428E+01 -0.17726E+01  0.11276E+02      982.00
  0.86773E+00  0.68829E+02    0.45000E+00  0.45000E+00 -0.90000E+00  0.00000E+00  0.00000E+00  0.00000E+00    0.23378E+02  0.20479E+02 -0.43857E+02  0.17037E+01 -0.18296E+01  0.11324E+02      982.00
  0.89163E+00  0.68858E+02    0.46250E+00  0.46250E+00 -0.92500E+00  0.00000E+00  0.00000E+00  0.00000E+00    0.23358E+02  0.20500E+02 -0.43857E+02  0.17766E+01 -0.18980E+01  0.11360E+02      982.00
  0.91551E+00  0.68882E+02    0.47500E+00  0.47500E+00 -0.95000E+00  0.00000E+00  0.00000E+00  0.00000E+00    0.23336E+02  0.20519E+02 -0.43855E+02  0.18493E+01 -0.19658E+01  0.11396E+02      982.00
  0.93939E+00  0.68861E+02    0.48750E+00  0.48750E+00 -0.97500E+00  0.00000E+00  0.00000E+00  0.00000E+00    0.23299E+02  0.20526E+02 -0.43825E+02  0.19153E+01 -0.20257E+01  0.11422E+02      982.00
  0.96325E+00  0.68838E+02    0.50000E+00  0.50000E+00 -0.10000E+01  0.00000E+00  0.00000E+00  0.00000E+00    0.23262E+02  0.20531E+02 -0.43794E+02  0.19808E+01 -0.20854E+01  0.11447E+02      982.00
