          Evm          Svm            E11          E22          E33          E23          E13          E12         SDEV11       SDEV22       SDEV33       SDEV23       SDEV13       SDEV12      TEMP
  0.00000E+00  0.62490E+02    0.00000E+00  0.00000E+00  0.00000E+00  0.00000E+00  0.00000E+00  0.00000E+00    0.19236E+02  0.18480E+02 -0.37716E+02  0.58724E+01 -0.79043E+01  0.11735E+02      982.00
  0.22633E-01  0.62696E+02    0.12500E-01  0.12500E-01 -0.25000E-01  0.00000E+00  0.00000E+00  0.00000E+00    0.18891E+02  0.18817E+02 -0.37708E+02  0.60767E+01 -0.78890E+01  0.12028E+02      982.00
  0.45187E-01  0.62835E+02    0.25000E-01  0.25000E-01 -0.50000E-01  0.00000E+00  0.00000E+00  0.00000E+00    0.18639E+02  0.19042E+02 -0.37681E+02  0.62035E+01 -0.78751E+01  0.12274E+02      982.00
  0.67675E-01  0.62947E+02    0.37500E-01  0.37500E-01 -0.75000E-01  0.00000E+00  0.00000E+00  0.00000E+00    0.18456E+02  0.19203E+02 -0.37659E+02  0.62456E+01 -0.78291E+01  0.12517E+02      982.00
  0.90110E-01  0.63071E+02    0.50000E-01  0.50000E-01 -0.10000E+00  0.00000E+00  0.00000E+00  0.00000E+00    0.18329E+02  0.19325E+02 -0.37654E+02  0.62104E+01 -0.77529E+01  0.12796E+02      982.00
  0.11250E+00  0.63224E+02    0.62500E-01  0.62500E-01 -0.12500E+00  0.00000E+00  0.00000E+00  0.00000E+00    0.18234E+02  0.19427E+02 -0.37661E+02  0.61175E+01 -0.76491E+01  0.13129E+02      982.00
  0.13484E+00  0.63398E+02    0.75000E-01  0.75000E-01 -0.15000E+00  0.00000E+00  0.00000E+00  0.00000E+00    0.18166E+02  0.19507E+02 -0.37673E+02  0.59758E+01 -0.75237E+01  0.13512E+02      982.00
  0.15712E+00  0.63592E+02    0.87500E-01  0.87500E-01 -0.17500E+00  0.00000E+00  0.00000E+00  0.00000E+00    0.18107E+02  0.19573E+02 -0.37681E+02  0.58002E+01 -0.73778E+01  0.13946E+02      982.00
  0.17934E+00  0.63785E+02    0.10000E+00  0.10000E+00 -0.20000E+00  0.00000E+00  0.00000E+00  0.00000E+00    0.18053E+02  0.19618E+02 -0.37671E+02  0.56093E+01 -0.72272E+01  0.14406E+02      982.00
  0.20149E+00  0.63992E+02    0.11250E+00  0.11250E+00 -0.22500E+00  0.00000E+00  0.00000E+00  0.00000E+00    0.17991E+02  0.19660E+02 -0.37652E+02  0.54048E+01 -0.70635E+01  0.14898E+02      982.00
  0.22355E+00  0.64203E+02    0.12500E+00  0.12500E+00 -0.25000E+00  0.00000E+00  0.00000E+00  0.00000E+00    0.17921E+02  0.19697E+02 -0.37618E+02  0.51928E+01 -0.68920E+01  0.15408E+02      982.00
  0.24552E+00  0.64416E+02    0.13750E+00  0.13750E+00 -0.27500E+00  0.00000E+00  0.00000E+00  0.00000E+00    0.17842E+02  0.19729E+02 -0.37571E+02  0.49759E+01 -0.67140E+01  0.15930E+02      982.00
  0.26739E+00  0.64626E+02    0.15000E+00  0.15000E+00 -0.30000E+00  0.00000E+00  0.00000E+00  0.00000E+00    0.17752E+02  0.19757E+02 -0.37509E+02  0.47551E+01 -0.65296E+01  0.16454E+02      982.00
  0.28916E+00  0.64831E+02    0.16250E+00  0.16250E+00 -0.32500E+00  0.00000E+00  0.00000E+00  0.00000E+00    0.17653E+02  0.19782E+02 -0.37435E+02  0.45306E+01 -0.63381E+01  0.16974E+02      982.00
  0.31081E+00  0.65026E+02    0.17500E+00  0.17500E+00 -0.35000E+00  0.00000E+00  0.00000E+00  0.00000E+00    0.17545E+02  0.19806E+02 -0.37351E+02  0.43018E+01 -0.61382E+01  0.17484E+02      982.00
  0.33235E+00  0.65209E+02    0.18750E+00  0.18750E+00 -0.37500E+00  0.00000E+00  0.00000E+00  0.00000E+00    0.17429E+02  0.19828E+02 -0.37257E+02  0.40677E+01 -0.59281E+01  0.17978E+02      982.00
  0.35378E+00  0.65378E+02    0.20000E+00  0.20000E+00 -0.40000E+00  0.00000E+00  0.00000E+00  0.00000E+00    0.17309E+02  0.19850E+02 -0.37158E+02  0.38269E+01 -0.57062E+01  0.18450E+02      982.00
  0.37509E+00  0.65533E+02    0.21250E+00  0.21250E+00 -0.42500E+00  0.00000E+00  0.00000E+00  0.00000E+00    0.17186E+02  0.19871E+02 -0.37057E+02  0.35783E+01 -0.54705E+01  0.18896E+02      982.00
  0.39630E+00  0.65671E+02    0.22500E+00  0.22500E+00 -0.45000E+00  0.00000E+00  0.00000E+00  0.00000E+00    0.17062E+02  0.19894E+02 -0.36956E+02  0.33208E+01 -0.52197E+01  0.19312E+02      982.00
  0.41740E+00  0.65793E+02    0.23750E+00  0.23750E+00 -0.47500E+00  0.00000E+00  0.00000E+00  0.00000E+00    0.16941E+02  0.19919E+02 -0.36859E+02  0.30535E+01 -0.49524E+01  0.19694E+02      982.00
  0.43841E+00  0.65901E+02    0.25000E+00  0.25000E+00 -0.50000E+00  0.00000E+00  0.00000E+00  0.00000E+00    0.16830E+02  0.19940E+02 -0.36771E+02  0.27780E+01 -0.46732E+01  0.20040E+02      982.00
  0.45933E+00  0.65990E+02    0.26250E+00  0.26250E+00 -0.52500E+00  0.00000E+00  0.00000E+00  0.00000E+00    0.16723E+02  0.19968E+02 -0.36691E+02  0.24901E+01 -0.43719E+01  0.20345E+02      982.00
  0.48018E+00  0.66064E+02    0.27500E+00  0.27500E+00 -0.55000E+00  0.00000E+00  0.00000E+00  0.00000E+00    0.16625E+02  0.20000E+02 -0.36625E+02  0.21919E+01 -0.40532E+01  0.20608E+02      982.00
  0.50097E+00  0.66124E+02    0.28750E+00  0.28750E+00 -0.57500E+00  0.00000E+00  0.00000E+00  0.00000E+00    0.16541E+02  0.20033E+02 -0.36574E+02  0.18838E+01 -0.37176E+01  0.20828E+02      982.00
  0.52172E+00  0.66179E+02    0.30000E+00  0.30000E+00 -0.60000E+00  0.00000E+00  0.00000E+00  0.00000E+00    0.16475E+02  0.20067E+02 -0.36542E+02  0.15731E+01 -0.33768E+01  0.21007E+02      982.00
  0.54242E+00  0.66210E+02    0.31250E+00  0.31250E+00 -0.62500E+00  0.00000E+00  0.00000E+00  0.00000E+00    0.16419E+02  0.20106E+02 -0.36525E+02  0.12476E+01 -0.30096E+01  0.21135E+02      982.00
  0.56311E+00  0.66244E+02    0.32500E+00  0.32500E+00 -0.65000E+00  0.00000E+00  0.00000E+00  0.00000E+00    0.16384E+02  0.20145E+02 -0.36530E+02  0.92631E+00 -0.26451E+01  0.21226E+02      982.00
  0.58379E+00  0.66264E+02    0.33750E+00  0.33750E+00 -0.67500E+00  0.00000E+00  0.00000E+00  0.00000E+00    0.16364E+02  0.20188E+02 -0.36552E+02  0.59762E+00 -0.22647E+01  0.21270E+02      982.00
  0.60447E+00  0.66282E+02    0.35000E+00  0.35000E+00 -0.70000E+00  0.00000E+00  0.00000E+00  0.00000E+00    0.16364E+02  0.20231E+02 -0.36594E+02  0.27739E+00 -0.18905E+01  0.21277E+02      982.00
  0.62518E+00  0.66293E+02    0.36250E+00  0.36250E+00 -0.72500E+00  0.00000E+00  0.00000E+00  0.00000E+00    0.16379E+02  0.20275E+02 -0.36654E+02 -0.41157E-01 -0.15120E+01  0.21242E+02      982.00
  0.64591E+00  0.66306E+02    0.37500E+00  0.37500E+00 -0.75000E+00  0.00000E+00  0.00000E+00  0.00000E+00    0.16412E+02  0.20317E+02 -0.36729E+02 -0.34204E+00 -0.11503E+01  0.21177E+02      982.00
  0.66668E+00  0.66317E+02    0.38750E+00  0.38750E+00 -0.77500E+00  0.00000E+00  0.00000E+00  0.00000E+00    0.16460E+02  0.20359E+02 -0.36819E+02 -0.63082E+00 -0.79739E+00  0.21081E+02      982.00
  0.68750E+00  0.66330E+02    0.40000E+00  0.40000E+00 -0.80000E+00  0.00000E+00  0.00000E+00  0.00000E+00    0.16521E+02  0.20400E+02 -0.36921E+02 -0.89802E+00 -0.46573E+00  0.20962E+02      982.00
  0.70838E+00  0.66347E+02    0.41250E+00  0.41250E+00 -0.82500E+00  0.00000E+00  0.00000E+00  0.00000E+00    0.16594E+02  0.20438E+02 -0.37033E+02 -0.11402E+01 -0.15995E+00  0.20826E+02      982.00
  0.72931E+00  0.66369E+02    0.42500E+00  0.42500E+00 -0.85000E+00  0.00000E+00  0.00000E+00  0.00000E+00    0.16678E+02  0.20474E+02 -0.37152E+02 -0.13552E+01  0.11695E+00  0.20680E+02      982.00
  0.75030E+00  0.66396E+02    0.43750E+00  0.43750E+00 -0.87500E+00  0.00000E+00  0.00000E+00  0.00000E+00    0.16769E+02  0.20507E+02 -0.37275E+02 -0.15413E+01  0.36187E+00  0.20527E+02      982.00
  0.77135E+00  0.66425E+02    0.45000E+00  0.45000E+00 -0.90000E+00  0.00000E+00  0.00000E+00  0.00000E+00    0.16865E+02  0.20537E+02 -0.37402E+02 -0.17066E+01  0.58509E+00  0.20370E+02      982.00
  0.79247E+00  0.66460E+02    0.46250E+00  0.46250E+00 -0.92500E+00  0.00000E+00  0.00000E+00  0.00000E+00    0.16966E+02  0.20563E+02 -0.37529E+02 -0.18406E+01  0.77157E+00  0.20217E+02      982.00
  0.81364E+00  0.66497E+02    0.47500E+00  0.47500E+00 -0.95000E+00  0.00000E+00  0.00000E+00  0.00000E+00    0.17069E+02  0.20587E+02 -0.37657E+02 -0.19574E+01  0.93975E+00  0.20065E+02      982.00
  0.83488E+00  0.66539E+02    0.48750E+00  0.48750E+00 -0.97500E+00  0.00000E+00  0.00000E+00  0.00000E+00    0.17174E+02  0.20607E+02 -0.37782E+02 -0.20480E+01  0.10757E+01  0.19923E+02      982.00
  0.85617E+00  0.66581E+02    0.50000E+00  0.50000E+00 -0.10000E+01  0.00000E+00  0.00000E+00  0.00000E+00    0.17279E+02  0.20625E+02 -0.37904E+02 -0.21260E+01  0.11987E+01  0.19784E+02      982.00
