          Evm          Svm            E11          E22          E33          E23          E13          E12         SDEV11       SDEV22       SDEV33       SDEV23       SDEV13       SDEV12      TEMP
  0.00000E+00  0.63330E+02    0.00000E+00  0.00000E+00  0.00000E+00  0.00000E+00  0.00000E+00  0.00000E+00    0.19364E+02  0.20376E+02 -0.39740E+02  0.50889E+01 -0.57196E+01  0.96738E+01      982.00
  0.23531E-01  0.63378E+02    0.12500E-01  0.12500E-01 -0.25000E-01  0.00000E+00  0.00000E+00  0.00000E+00    0.19583E+02  0.20178E+02 -0.39761E+02  0.49697E+01 -0.57754E+01  0.97503E+01      982.00
  0.47058E-01  0.63450E+02    0.25000E-01  0.25000E-01 -0.50000E-01  0.00000E+00  0.00000E+00  0.00000E+00    0.19719E+02  0.20085E+02 -0.39804E+02  0.48546E+01 -0.57386E+01  0.98554E+01      982.00
  0.70583E-01  0.63561E+02    0.37500E-01  0.37500E-01 -0.75000E-01  0.00000E+00  0.00000E+00  0.00000E+00    0.19826E+02  0.20045E+02 -0.39871E+02  0.47191E+01 -0.56622E+01  0.10002E+02      982.00
  0.94106E-01  0.63709E+02    0.50000E-01  0.50000E-01 -0.10000E+00  0.00000E+00  0.00000E+00  0.00000E+00    0.19910E+02  0.20044E+02 -0.39954E+02  0.45712E+01 -0.55611E+01  0.10191E+02      982.00
  0.11762E+00  0.63894E+02    0.62500E-01  0.62500E-01 -0.12500E+00  0.00000E+00  0.00000E+00  0.00000E+00    0.19979E+02  0.20070E+02 -0.40049E+02  0.44148E+01 -0.54481E+01  0.10427E+02      982.00
  0.14113E+00  0.64098E+02    0.75000E-01  0.75000E-01 -0.15000E+00  0.00000E+00  0.00000E+00  0.00000E+00    0.20030E+02  0.20112E+02 -0.40142E+02  0.42547E+01 -0.53290E+01  0.10701E+02      982.00
  0.16461E+00  0.64323E+02    0.87500E-01  0.87500E-01 -0.17500E+00  0.00000E+00  0.00000E+00  0.00000E+00    0.20068E+02  0.20171E+02 -0.40239E+02  0.41046E+01 -0.52146E+01  0.10989E+02      982.00
  0.18807E+00  0.64568E+02    0.10000E+00  0.10000E+00 -0.20000E+00  0.00000E+00  0.00000E+00  0.00000E+00    0.20100E+02  0.20237E+02 -0.40337E+02  0.39637E+01 -0.51094E+01  0.11293E+02      982.00
  0.21150E+00  0.64829E+02    0.11250E+00  0.11250E+00 -0.22500E+00  0.00000E+00  0.00000E+00  0.00000E+00    0.20127E+02  0.20309E+02 -0.40436E+02  0.38348E+01 -0.50167E+01  0.11607E+02      982.00
  0.23489E+00  0.65100E+02    0.12500E+00  0.12500E+00 -0.25000E+00  0.00000E+00  0.00000E+00  0.00000E+00    0.20147E+02  0.20382E+02 -0.40529E+02  0.37166E+01 -0.49389E+01  0.11937E+02      982.00
  0.25824E+00  0.65380E+02    0.13750E+00  0.13750E+00 -0.27500E+00  0.00000E+00  0.00000E+00  0.00000E+00    0.20164E+02  0.20461E+02 -0.40625E+02  0.36180E+01 -0.48744E+01  0.12255E+02      982.00
  0.28154E+00  0.65658E+02    0.15000E+00  0.15000E+00 -0.30000E+00  0.00000E+00  0.00000E+00  0.00000E+00    0.20175E+02  0.20537E+02 -0.40712E+02  0.35345E+01 -0.48256E+01  0.12571E+02      982.00
  0.30479E+00  0.65932E+02    0.16250E+00  0.16250E+00 -0.32500E+00  0.00000E+00  0.00000E+00  0.00000E+00    0.20180E+02  0.20612E+02 -0.40792E+02  0.34666E+01 -0.47918E+01  0.12884E+02      982.00
  0.32799E+00  0.66198E+02    0.17500E+00  0.17500E+00 -0.35000E+00  0.00000E+00  0.00000E+00  0.00000E+00    0.20177E+02  0.20684E+02 -0.40861E+02  0.34135E+01 -0.47723E+01  0.13193E+02      982.00
  0.35114E+00  0.66454E+02    0.18750E+00  0.18750E+00 -0.37500E+00  0.00000E+00  0.00000E+00  0.00000E+00    0.20166E+02  0.20751E+02 -0.40917E+02  0.33743E+01 -0.47660E+01  0.13499E+02      982.00
  0.37423E+00  0.66682E+02    0.20000E+00  0.20000E+00 -0.40000E+00  0.00000E+00  0.00000E+00  0.00000E+00    0.20148E+02  0.20806E+02 -0.40955E+02  0.33533E+01 -0.47744E+01  0.13785E+02      982.00
  0.39726E+00  0.66906E+02    0.21250E+00  0.21250E+00 -0.42500E+00  0.00000E+00  0.00000E+00  0.00000E+00    0.20119E+02  0.20859E+02 -0.40979E+02  0.33374E+01 -0.47910E+01  0.14088E+02      982.00
  0.42023E+00  0.67114E+02    0.22500E+00  0.22500E+00 -0.45000E+00  0.00000E+00  0.00000E+00  0.00000E+00    0.20078E+02  0.20906E+02 -0.40985E+02  0.33315E+01 -0.48172E+01  0.14392E+02      982.00
  0.44313E+00  0.67303E+02    0.23750E+00  0.23750E+00 -0.47500E+00  0.00000E+00  0.00000E+00  0.00000E+00    0.20028E+02  0.20940E+02 -0.40969E+02  0.33378E+01 -0.48538E+01  0.14702E+02      982.00
  0.46595E+00  0.67485E+02    0.25000E+00  0.25000E+00 -0.50000E+00  0.00000E+00  0.00000E+00  0.00000E+00    0.19962E+02  0.20978E+02 -0.40940E+02  0.33401E+01 -0.48909E+01  0.15022E+02      982.00
  0.48870E+00  0.67635E+02    0.26250E+00  0.26250E+00 -0.52500E+00  0.00000E+00  0.00000E+00  0.00000E+00    0.19883E+02  0.21002E+02 -0.40885E+02  0.33527E+01 -0.49347E+01  0.15338E+02      982.00
  0.51137E+00  0.67765E+02    0.27500E+00  0.27500E+00 -0.55000E+00  0.00000E+00  0.00000E+00  0.00000E+00    0.19791E+02  0.21016E+02 -0.40807E+02  0.33670E+01 -0.49804E+01  0.15662E+02      982.00
  0.53395E+00  0.67877E+02    0.28750E+00  0.28750E+00 -0.57500E+00  0.00000E+00  0.00000E+00  0.00000E+00    0.19686E+02  0.21021E+02 -0.40707E+02  0.33810E+01 -0.50257E+01  0.15994E+02      982.00
  0.55644E+00  0.67970E+02    0.30000E+00  0.30000E+00 -0.60000E+00  0.00000E+00  0.00000E+00  0.00000E+00    0.19568E+02  0.21018E+02 -0.40585E+02  0.33921E+01 -0.50678E+01  0.16337E+02      982.00
  0.57883E+00  0.68046E+02    0.31250E+00  0.31250E+00 -0.62500E+00  0.00000E+00  0.00000E+00  0.00000E+00    0.19436E+02  0.21005E+02 -0.40442E+02  0.33976E+01 -0.51040E+01  0.16690E+02      982.00
  0.60112E+00  0.68104E+02    0.32500E+00  0.32500E+00 -0.65000E+00  0.00000E+00  0.00000E+00  0.00000E+00    0.19292E+02  0.20985E+02 -0.40277E+02  0.33940E+01 -0.51304E+01  0.17053E+02      982.00
  0.62330E+00  0.68146E+02    0.33750E+00  0.33750E+00 -0.67500E+00  0.00000E+00  0.00000E+00  0.00000E+00    0.19136E+02  0.20957E+02 -0.40093E+02  0.33801E+01 -0.51450E+01  0.17425E+02      982.00
  0.64536E+00  0.68172E+02    0.35000E+00  0.35000E+00 -0.70000E+00  0.00000E+00  0.00000E+00  0.00000E+00    0.18970E+02  0.20921E+02 -0.39891E+02  0.33522E+01 -0.51439E+01  0.17804E+02      982.00
  0.66731E+00  0.68184E+02    0.36250E+00  0.36250E+00 -0.72500E+00  0.00000E+00  0.00000E+00  0.00000E+00    0.18795E+02  0.20879E+02 -0.39675E+02  0.33080E+01 -0.51241E+01  0.18189E+02      982.00
  0.68913E+00  0.68182E+02    0.37500E+00  0.37500E+00 -0.75000E+00  0.00000E+00  0.00000E+00  0.00000E+00    0.18614E+02  0.20832E+02 -0.39446E+02  0.32453E+01 -0.50827E+01  0.18575E+02      982.00
  0.71082E+00  0.68168E+02    0.38750E+00  0.38750E+00 -0.77500E+00  0.00000E+00  0.00000E+00  0.00000E+00    0.18428E+02  0.20781E+02 -0.39209E+02  0.31623E+01 -0.50171E+01  0.18958E+02      982.00
  0.73239E+00  0.68152E+02    0.40000E+00  0.40000E+00 -0.80000E+00  0.00000E+00  0.00000E+00  0.00000E+00    0.18248E+02  0.20721E+02 -0.38969E+02  0.30674E+01 -0.49364E+01  0.19338E+02      982.00
  0.75383E+00  0.68118E+02    0.41250E+00  0.41250E+00 -0.82500E+00  0.00000E+00  0.00000E+00  0.00000E+00    0.18062E+02  0.20667E+02 -0.38729E+02  0.29424E+01 -0.48204E+01  0.19702E+02      982.00
  0.77515E+00  0.68076E+02    0.42500E+00  0.42500E+00 -0.85000E+00  0.00000E+00  0.00000E+00  0.00000E+00    0.17880E+02  0.20614E+02 -0.38494E+02  0.27957E+01 -0.46769E+01  0.20047E+02      982.00
  0.79636E+00  0.68033E+02    0.43750E+00  0.43750E+00 -0.87500E+00  0.00000E+00  0.00000E+00  0.00000E+00    0.17708E+02  0.20562E+02 -0.38269E+02  0.26328E+01 -0.45139E+01  0.20374E+02      982.00
  0.81745E+00  0.67984E+02    0.45000E+00  0.45000E+00 -0.90000E+00  0.00000E+00  0.00000E+00  0.00000E+00    0.17546E+02  0.20512E+02 -0.38058E+02  0.24543E+01 -0.43301E+01  0.20672E+02      982.00
  0.83845E+00  0.67923E+02    0.46250E+00  0.46250E+00 -0.92500E+00  0.00000E+00  0.00000E+00  0.00000E+00    0.17391E+02  0.20469E+02 -0.37860E+02  0.22510E+01 -0.41129E+01  0.20939E+02      982.00
  0.85935E+00  0.67860E+02    0.47500E+00  0.47500E+00 -0.95000E+00  0.00000E+00  0.00000E+00  0.00000E+00    0.17251E+02  0.20430E+02 -0.37681E+02  0.20360E+01 -0.38797E+01  0.21174E+02      982.00
  0.88017E+00  0.67795E+02    0.48750E+00  0.48750E+00 -0.97500E+00  0.00000E+00  0.00000E+00  0.00000E+00    0.17127E+02  0.20397E+02 -0.37524E+02  0.18086E+01 -0.36290E+01  0.21375E+02      982.00
  0.90093E+00  0.67688E+02    0.50000E+00  0.50000E+00 -0.10000E+01  0.00000E+00  0.00000E+00  0.00000E+00    0.17014E+02  0.20358E+02 -0.37371E+02  0.15854E+01 -0.33702E+01  0.21520E+02      982.00
