          Evm          Svm            E11          E22          E33          E23          E13          E12         SDEV11       SDEV22       SDEV33       SDEV23       SDEV13       SDEV12      TEMP
  0.00000E+00  0.62450E+02    0.00000E+00  0.00000E+00  0.00000E+00  0.00000E+00  0.00000E+00  0.00000E+00    0.21884E+02  0.18673E+02 -0.40557E+02  0.40205E+01 -0.17258E+01  0.66834E+01      982.00
  0.24353E-01  0.62571E+02    0.12500E-01  0.12500E-01 -0.25000E-01  0.00000E+00  0.00000E+00  0.00000E+00    0.22696E+02  0.17900E+02 -0.40596E+02  0.37715E+01 -0.16272E+01  0.68102E+01      982.00
  0.48683E-01  0.62663E+02    0.25000E-01  0.25000E-01 -0.50000E-01  0.00000E+00  0.00000E+00  0.00000E+00    0.23308E+02  0.17310E+02 -0.40618E+02  0.35107E+01 -0.16723E+01  0.68857E+01      982.00
  0.72991E-01  0.62759E+02    0.37500E-01  0.37500E-01 -0.75000E-01  0.00000E+00  0.00000E+00  0.00000E+00    0.23803E+02  0.16836E+02 -0.40639E+02  0.32719E+01 -0.17752E+01  0.69469E+01      982.00
  0.97273E-01  0.62875E+02    0.50000E-01  0.50000E-01 -0.10000E+00  0.00000E+00  0.00000E+00  0.00000E+00    0.24225E+02  0.16443E+02 -0.40668E+02  0.30669E+01 -0.18963E+01  0.70125E+01      982.00
  0.12153E+00  0.63021E+02    0.62500E-01  0.62500E-01 -0.12500E+00  0.00000E+00  0.00000E+00  0.00000E+00    0.24600E+02  0.16113E+02 -0.40713E+02  0.28971E+01 -0.20183E+01  0.70907E+01      982.00
  0.14575E+00  0.63201E+02    0.75000E-01  0.75000E-01 -0.15000E+00  0.00000E+00  0.00000E+00  0.00000E+00    0.24937E+02  0.15838E+02 -0.40775E+02  0.27584E+01 -0.21373E+01  0.71860E+01      982.00
  0.16995E+00  0.63418E+02    0.87500E-01  0.87500E-01 -0.17500E+00  0.00000E+00  0.00000E+00  0.00000E+00    0.25259E+02  0.15598E+02 -0.40857E+02  0.26484E+01 -0.22490E+01  0.72970E+01      982.00
  0.19411E+00  0.63664E+02    0.10000E+00  0.10000E+00 -0.20000E+00  0.00000E+00  0.00000E+00  0.00000E+00    0.25566E+02  0.15389E+02 -0.40955E+02  0.25625E+01 -0.23547E+01  0.74204E+01      982.00
  0.21823E+00  0.63934E+02    0.11250E+00  0.11250E+00 -0.22500E+00  0.00000E+00  0.00000E+00  0.00000E+00    0.25852E+02  0.15215E+02 -0.41067E+02  0.24951E+01 -0.24573E+01  0.75576E+01      982.00
  0.24232E+00  0.64222E+02    0.12500E+00  0.12500E+00 -0.25000E+00  0.00000E+00  0.00000E+00  0.00000E+00    0.26124E+02  0.15064E+02 -0.41189E+02  0.24443E+01 -0.25565E+01  0.77039E+01      982.00
  0.26637E+00  0.64523E+02    0.13750E+00  0.13750E+00 -0.27500E+00  0.00000E+00  0.00000E+00  0.00000E+00    0.26388E+02  0.14930E+02 -0.41318E+02  0.24092E+01 -0.26523E+01  0.78541E+01      982.00
  0.29038E+00  0.64829E+02    0.15000E+00  0.15000E+00 -0.30000E+00  0.00000E+00  0.00000E+00  0.00000E+00    0.26630E+02  0.14820E+02 -0.41451E+02  0.23848E+01 -0.27474E+01  0.80118E+01      982.00
  0.31436E+00  0.65130E+02    0.16250E+00  0.16250E+00 -0.32500E+00  0.00000E+00  0.00000E+00  0.00000E+00    0.26858E+02  0.14723E+02 -0.41581E+02  0.23713E+01 -0.28385E+01  0.81691E+01      982.00
  0.33830E+00  0.65421E+02    0.17500E+00  0.17500E+00 -0.35000E+00  0.00000E+00  0.00000E+00  0.00000E+00    0.27064E+02  0.14642E+02 -0.41707E+02  0.23661E+01 -0.29259E+01  0.83273E+01      982.00
  0.36221E+00  0.65700E+02    0.18750E+00  0.18750E+00 -0.37500E+00  0.00000E+00  0.00000E+00  0.00000E+00    0.27248E+02  0.14578E+02 -0.41825E+02  0.23676E+01 -0.30092E+01  0.84867E+01      982.00
  0.38608E+00  0.65973E+02    0.20000E+00  0.20000E+00 -0.40000E+00  0.00000E+00  0.00000E+00  0.00000E+00    0.27402E+02  0.14541E+02 -0.41943E+02  0.23784E+01 -0.30952E+01  0.86513E+01      982.00
  0.40992E+00  0.66227E+02    0.21250E+00  0.21250E+00 -0.42500E+00  0.00000E+00  0.00000E+00  0.00000E+00    0.27539E+02  0.14509E+02 -0.42048E+02  0.23903E+01 -0.31680E+01  0.88191E+01      982.00
  0.43373E+00  0.66481E+02    0.22500E+00  0.22500E+00 -0.45000E+00  0.00000E+00  0.00000E+00  0.00000E+00    0.27645E+02  0.14510E+02 -0.42155E+02  0.24134E+01 -0.32471E+01  0.89998E+01      982.00
  0.45751E+00  0.66694E+02    0.23750E+00  0.23750E+00 -0.47500E+00  0.00000E+00  0.00000E+00  0.00000E+00    0.27707E+02  0.14536E+02 -0.42243E+02  0.24456E+01 -0.33187E+01  0.91642E+01      982.00
  0.48126E+00  0.66871E+02    0.25000E+00  0.25000E+00 -0.50000E+00  0.00000E+00  0.00000E+00  0.00000E+00    0.27741E+02  0.14574E+02 -0.42315E+02  0.24840E+01 -0.33835E+01  0.93100E+01      982.00
  0.50499E+00  0.67056E+02    0.26250E+00  0.26250E+00 -0.52500E+00  0.00000E+00  0.00000E+00  0.00000E+00    0.27775E+02  0.14613E+02 -0.42388E+02  0.25328E+01 -0.34470E+01  0.94692E+01      982.00
  0.52869E+00  0.67215E+02    0.27500E+00  0.27500E+00 -0.55000E+00  0.00000E+00  0.00000E+00  0.00000E+00    0.27773E+02  0.14676E+02 -0.42450E+02  0.25814E+01 -0.34963E+01  0.96289E+01      982.00
  0.55238E+00  0.67364E+02    0.28750E+00  0.28750E+00 -0.57500E+00  0.00000E+00  0.00000E+00  0.00000E+00    0.27759E+02  0.14747E+02 -0.42505E+02  0.26367E+01 -0.35395E+01  0.97876E+01      982.00
  0.57604E+00  0.67489E+02    0.30000E+00  0.30000E+00 -0.60000E+00  0.00000E+00  0.00000E+00  0.00000E+00    0.27714E+02  0.14838E+02 -0.42551E+02  0.26935E+01 -0.35739E+01  0.99416E+01      982.00
  0.59968E+00  0.67601E+02    0.31250E+00  0.31250E+00 -0.62500E+00  0.00000E+00  0.00000E+00  0.00000E+00    0.27649E+02  0.14942E+02 -0.42591E+02  0.27529E+01 -0.36016E+01  0.10092E+02      982.00
  0.62331E+00  0.67700E+02    0.32500E+00  0.32500E+00 -0.65000E+00  0.00000E+00  0.00000E+00  0.00000E+00    0.27569E+02  0.15057E+02 -0.42626E+02  0.28141E+01 -0.36232E+01  0.10238E+02      982.00
  0.64692E+00  0.67787E+02    0.33750E+00  0.33750E+00 -0.67500E+00  0.00000E+00  0.00000E+00  0.00000E+00    0.27476E+02  0.15180E+02 -0.42656E+02  0.28761E+01 -0.36395E+01  0.10380E+02      982.00
  0.67052E+00  0.67865E+02    0.35000E+00  0.35000E+00 -0.70000E+00  0.00000E+00  0.00000E+00  0.00000E+00    0.27372E+02  0.15310E+02 -0.42682E+02  0.29381E+01 -0.36513E+01  0.10515E+02      982.00
  0.69410E+00  0.67934E+02    0.36250E+00  0.36250E+00 -0.72500E+00  0.00000E+00  0.00000E+00  0.00000E+00    0.27260E+02  0.15445E+02 -0.42705E+02  0.29993E+01 -0.36595E+01  0.10645E+02      982.00
  0.71768E+00  0.67994E+02    0.37500E+00  0.37500E+00 -0.75000E+00  0.00000E+00  0.00000E+00  0.00000E+00    0.27132E+02  0.15592E+02 -0.42724E+02  0.30590E+01 -0.36634E+01  0.10769E+02      982.00
  0.74124E+00  0.68050E+02    0.38750E+00  0.38750E+00 -0.77500E+00  0.00000E+00  0.00000E+00  0.00000E+00    0.27012E+02  0.15729E+02 -0.42741E+02  0.31172E+01 -0.36663E+01  0.10886E+02      982.00
  0.76479E+00  0.68098E+02    0.40000E+00  0.40000E+00 -0.80000E+00  0.00000E+00  0.00000E+00  0.00000E+00    0.26882E+02  0.15873E+02 -0.42756E+02  0.31736E+01 -0.36667E+01  0.10998E+02      982.00
  0.78834E+00  0.68145E+02    0.41250E+00  0.41250E+00 -0.82500E+00  0.00000E+00  0.00000E+00  0.00000E+00    0.26763E+02  0.16006E+02 -0.42769E+02  0.32275E+01 -0.36666E+01  0.11101E+02      982.00
  0.81187E+00  0.68189E+02    0.42500E+00  0.42500E+00 -0.85000E+00  0.00000E+00  0.00000E+00  0.00000E+00    0.26646E+02  0.16136E+02 -0.42782E+02  0.32789E+01 -0.36658E+01  0.11197E+02      982.00
  0.83540E+00  0.68228E+02    0.43750E+00  0.43750E+00 -0.87500E+00  0.00000E+00  0.00000E+00  0.00000E+00    0.26531E+02  0.16262E+02 -0.42793E+02  0.33279E+01 -0.36645E+01  0.11287E+02      982.00
  0.85892E+00  0.68261E+02    0.45000E+00  0.45000E+00 -0.90000E+00  0.00000E+00  0.00000E+00  0.00000E+00    0.26404E+02  0.16401E+02 -0.42804E+02  0.33770E+01 -0.36581E+01  0.11368E+02      982.00
  0.88244E+00  0.68295E+02    0.46250E+00  0.46250E+00 -0.92500E+00  0.00000E+00  0.00000E+00  0.00000E+00    0.26297E+02  0.16517E+02 -0.42813E+02  0.34218E+01 -0.36562E+01  0.11447E+02      982.00
  0.90594E+00  0.68326E+02    0.47500E+00  0.47500E+00 -0.95000E+00  0.00000E+00  0.00000E+00  0.00000E+00    0.26194E+02  0.16627E+02 -0.42821E+02  0.34641E+01 -0.36546E+01  0.11520E+02      982.00
  0.92944E+00  0.68314E+02    0.48750E+00  0.48750E+00 -0.97500E+00  0.00000E+00  0.00000E+00  0.00000E+00    0.26081E+02  0.16723E+02 -0.42804E+02  0.34943E+01 -0.36426E+01  0.11580E+02      982.00
  0.95294E+00  0.68301E+02    0.50000E+00  0.50000E+00 -0.10000E+01  0.00000E+00  0.00000E+00  0.00000E+00    0.25974E+02  0.16814E+02 -0.42787E+02  0.35226E+01 -0.36326E+01  0.11634E+02      982.00
