          Evm          Svm            E11          E22          E33          E23          E13          E12         SDEV11       SDEV22       SDEV33       SDEV23       SDEV13       SDEV12      TEMP
  0.00000E+00  0.57668E+02    0.00000E+00  0.00000E+00  0.00000E+00  0.00000E+00  0.00000E+00  0.00000E+00    0.16222E+02  0.19195E+02 -0.35418E+02 -0.35823E+01  0.97899E+00  0.12318E+02      982.00
  0.23031E-01  0.57691E+02    0.12500E-01  0.12500E-01 -0.25000E-01  0.00000E+00  0.00000E+00  0.00000E+00    0.16629E+02  0.18746E+02 -0.35374E+02 -0.33422E+01  0.12543E+01  0.12532E+02      982.00
  0.46025E-01  0.57803E+02    0.25000E-01  0.25000E-01 -0.50000E-01  0.00000E+00  0.00000E+00  0.00000E+00    0.16949E+02  0.18417E+02 -0.35366E+02 -0.31692E+01  0.14600E+01  0.12765E+02      982.00
  0.68969E-01  0.57999E+02    0.37500E-01  0.37500E-01 -0.75000E-01  0.00000E+00  0.00000E+00  0.00000E+00    0.17215E+02  0.18179E+02 -0.35394E+02 -0.30265E+01  0.16225E+01  0.13028E+02      982.00
  0.91853E-01  0.58266E+02    0.50000E-01  0.50000E-01 -0.10000E+00  0.00000E+00  0.00000E+00  0.00000E+00    0.17437E+02  0.18017E+02 -0.35454E+02 -0.29048E+01  0.17467E+01  0.13317E+02      982.00
  0.11467E+00  0.58585E+02    0.62500E-01  0.62500E-01 -0.12500E+00  0.00000E+00  0.00000E+00  0.00000E+00    0.17620E+02  0.17918E+02 -0.35538E+02 -0.27981E+01  0.18370E+01  0.13624E+02      982.00
  0.13742E+00  0.58939E+02    0.75000E-01  0.75000E-01 -0.15000E+00  0.00000E+00  0.00000E+00  0.00000E+00    0.17776E+02  0.17865E+02 -0.35641E+02 -0.26999E+01  0.19020E+01  0.13940E+02      982.00
  0.16010E+00  0.59318E+02    0.87500E-01  0.87500E-01 -0.17500E+00  0.00000E+00  0.00000E+00  0.00000E+00    0.17903E+02  0.17856E+02 -0.35759E+02 -0.26125E+01  0.19374E+01  0.14257E+02      982.00
  0.18270E+00  0.59709E+02    0.10000E+00  0.10000E+00 -0.20000E+00  0.00000E+00  0.00000E+00  0.00000E+00    0.18010E+02  0.17877E+02 -0.35888E+02 -0.25313E+01  0.19511E+01  0.14567E+02      982.00
  0.20524E+00  0.60085E+02    0.11250E+00  0.11250E+00 -0.22500E+00  0.00000E+00  0.00000E+00  0.00000E+00    0.18098E+02  0.17917E+02 -0.36015E+02 -0.24586E+01  0.19473E+01  0.14857E+02      982.00
  0.22772E+00  0.60474E+02    0.12500E+00  0.12500E+00 -0.25000E+00  0.00000E+00  0.00000E+00  0.00000E+00    0.18176E+02  0.17975E+02 -0.36151E+02 -0.23939E+01  0.19278E+01  0.15147E+02      982.00
  0.25014E+00  0.60850E+02    0.13750E+00  0.13750E+00 -0.27500E+00  0.00000E+00  0.00000E+00  0.00000E+00    0.18249E+02  0.18036E+02 -0.36285E+02 -0.23138E+01  0.18980E+01  0.15422E+02      982.00
  0.27250E+00  0.61213E+02    0.15000E+00  0.15000E+00 -0.30000E+00  0.00000E+00  0.00000E+00  0.00000E+00    0.18315E+02  0.18103E+02 -0.36418E+02 -0.22624E+01  0.18659E+01  0.15675E+02      982.00
  0.29481E+00  0.61557E+02    0.16250E+00  0.16250E+00 -0.32500E+00  0.00000E+00  0.00000E+00  0.00000E+00    0.18378E+02  0.18169E+02 -0.36547E+02 -0.22171E+01  0.18320E+01  0.15908E+02      982.00
  0.31707E+00  0.61897E+02    0.17500E+00  0.17500E+00 -0.35000E+00  0.00000E+00  0.00000E+00  0.00000E+00    0.18441E+02  0.18232E+02 -0.36674E+02 -0.21619E+01  0.17882E+01  0.16140E+02      982.00
  0.33929E+00  0.62201E+02    0.18750E+00  0.18750E+00 -0.37500E+00  0.00000E+00  0.00000E+00  0.00000E+00    0.18503E+02  0.18290E+02 -0.36793E+02 -0.21291E+01  0.17570E+01  0.16332E+02      982.00
  0.36147E+00  0.62458E+02    0.20000E+00  0.20000E+00 -0.40000E+00  0.00000E+00  0.00000E+00  0.00000E+00    0.18563E+02  0.18338E+02 -0.36901E+02 -0.21251E+01  0.17465E+01  0.16478E+02      982.00
  0.38363E+00  0.62726E+02    0.21250E+00  0.21250E+00 -0.42500E+00  0.00000E+00  0.00000E+00  0.00000E+00    0.18624E+02  0.18385E+02 -0.37009E+02 -0.20999E+01  0.17203E+01  0.16639E+02      982.00
  0.40575E+00  0.62955E+02    0.22500E+00  0.22500E+00 -0.45000E+00  0.00000E+00  0.00000E+00  0.00000E+00    0.18680E+02  0.18423E+02 -0.37103E+02 -0.20748E+01  0.16934E+01  0.16776E+02      982.00
  0.42785E+00  0.63212E+02    0.23750E+00  0.23750E+00 -0.47500E+00  0.00000E+00  0.00000E+00  0.00000E+00    0.18747E+02  0.18458E+02 -0.37205E+02 -0.20404E+01  0.16548E+01  0.16935E+02      982.00
  0.44992E+00  0.63417E+02    0.25000E+00  0.25000E+00 -0.50000E+00  0.00000E+00  0.00000E+00  0.00000E+00    0.18806E+02  0.18487E+02 -0.37293E+02 -0.20291E+01  0.16376E+01  0.17050E+02      982.00
  0.47198E+00  0.63608E+02    0.26250E+00  0.26250E+00 -0.52500E+00  0.00000E+00  0.00000E+00  0.00000E+00    0.18866E+02  0.18510E+02 -0.37376E+02 -0.20222E+01  0.16242E+01  0.17151E+02      982.00
  0.49401E+00  0.63782E+02    0.27500E+00  0.27500E+00 -0.55000E+00  0.00000E+00  0.00000E+00  0.00000E+00    0.18924E+02  0.18529E+02 -0.37453E+02 -0.20174E+01  0.16129E+01  0.17242E+02      982.00
  0.51603E+00  0.63943E+02    0.28750E+00  0.28750E+00 -0.57500E+00  0.00000E+00  0.00000E+00  0.00000E+00    0.18981E+02  0.18544E+02 -0.37525E+02 -0.20144E+01  0.16035E+01  0.17324E+02      982.00
  0.53804E+00  0.64092E+02    0.30000E+00  0.30000E+00 -0.60000E+00  0.00000E+00  0.00000E+00  0.00000E+00    0.19037E+02  0.18555E+02 -0.37592E+02 -0.20130E+01  0.15958E+01  0.17398E+02      982.00
  0.56003E+00  0.64216E+02    0.31250E+00  0.31250E+00 -0.62500E+00  0.00000E+00  0.00000E+00  0.00000E+00    0.19080E+02  0.18574E+02 -0.37654E+02 -0.20212E+01  0.16004E+01  0.17450E+02      982.00
  0.58202E+00  0.64348E+02    0.32500E+00  0.32500E+00 -0.65000E+00  0.00000E+00  0.00000E+00  0.00000E+00    0.19146E+02  0.18559E+02 -0.37705E+02 -0.20103E+01  0.15799E+01  0.17531E+02      982.00
  0.60400E+00  0.64470E+02    0.33750E+00  0.33750E+00 -0.67500E+00  0.00000E+00  0.00000E+00  0.00000E+00    0.19202E+02  0.18561E+02 -0.37763E+02 -0.20120E+01  0.15750E+01  0.17586E+02      982.00
  0.62596E+00  0.64574E+02    0.35000E+00  0.35000E+00 -0.70000E+00  0.00000E+00  0.00000E+00  0.00000E+00    0.19251E+02  0.18561E+02 -0.37812E+02 -0.20148E+01  0.15722E+01  0.17635E+02      982.00
  0.64792E+00  0.64672E+02    0.36250E+00  0.36250E+00 -0.72500E+00  0.00000E+00  0.00000E+00  0.00000E+00    0.19299E+02  0.18559E+02 -0.37858E+02 -0.20182E+01  0.15704E+01  0.17679E+02      982.00
  0.66987E+00  0.64763E+02    0.37500E+00  0.37500E+00 -0.75000E+00  0.00000E+00  0.00000E+00  0.00000E+00    0.19346E+02  0.18556E+02 -0.37901E+02 -0.20219E+01  0.15692E+01  0.17720E+02      982.00
  0.69182E+00  0.64847E+02    0.38750E+00  0.38750E+00 -0.77500E+00  0.00000E+00  0.00000E+00  0.00000E+00    0.19391E+02  0.18550E+02 -0.37941E+02 -0.20259E+01  0.15685E+01  0.17757E+02      982.00
  0.71376E+00  0.64926E+02    0.40000E+00  0.40000E+00 -0.80000E+00  0.00000E+00  0.00000E+00  0.00000E+00    0.19435E+02  0.18544E+02 -0.37979E+02 -0.20301E+01  0.15683E+01  0.17792E+02      982.00
  0.73570E+00  0.64999E+02    0.41250E+00  0.41250E+00 -0.82500E+00  0.00000E+00  0.00000E+00  0.00000E+00    0.19478E+02  0.18536E+02 -0.38014E+02 -0.20345E+01  0.15685E+01  0.17823E+02      982.00
  0.75763E+00  0.65066E+02    0.42500E+00  0.42500E+00 -0.85000E+00  0.00000E+00  0.00000E+00  0.00000E+00    0.19519E+02  0.18527E+02 -0.38046E+02 -0.20391E+01  0.15690E+01  0.17852E+02      982.00
  0.77955E+00  0.65130E+02    0.43750E+00  0.43750E+00 -0.87500E+00  0.00000E+00  0.00000E+00  0.00000E+00    0.19559E+02  0.18518E+02 -0.38077E+02 -0.20437E+01  0.15698E+01  0.17879E+02      982.00
  0.80148E+00  0.65189E+02    0.45000E+00  0.45000E+00 -0.90000E+00  0.00000E+00  0.00000E+00  0.00000E+00    0.19598E+02  0.18507E+02 -0.38105E+02 -0.20483E+01  0.15708E+01  0.17904E+02      982.00
  0.82340E+00  0.65244E+02    0.46250E+00  0.46250E+00 -0.92500E+00  0.00000E+00  0.00000E+00  0.00000E+00    0.19636E+02  0.18496E+02 -0.38132E+02 -0.20530E+01  0.15720E+01  0.17927E+02      982.00
  0.84531E+00  0.65296E+02    0.47500E+00  0.47500E+00 -0.95000E+00  0.00000E+00  0.00000E+00  0.00000E+00    0.19673E+02  0.18484E+02 -0.38157E+02 -0.20577E+01  0.15733E+01  0.17948E+02      982.00
  0.86723E+00  0.65369E+02    0.48750E+00  0.48750E+00 -0.97500E+00  0.00000E+00  0.00000E+00  0.00000E+00    0.19734E+02  0.18456E+02 -0.38190E+02 -0.20638E+01  0.15741E+01  0.17982E+02      982.00
  0.88914E+00  0.65359E+02    0.50000E+00  0.50000E+00 -0.10000E+01  0.00000E+00  0.00000E+00  0.00000E+00    0.19714E+02  0.18473E+02 -0.38187E+02 -0.20613E+01  0.15777E+01  0.17975E+02      982.00
