          Evm          Svm            E11          E22          E33          E23          E13          E12         SDEV11       SDEV22       SDEV33       SDEV23       SDEV13       SDEV12      TEMP
  0.00000E+00  0.57834E+02    0.00000E+00  0.00000E+00  0.00000E+00  0.00000E+00  0.00000E+00  0.00000E+00    0.17166E+02  0.18306E+02 -0.35472E+02 -0.27739E+01  0.17490E+01  0.12654E+02      982.00
  0.23000E-01  0.57885E+02    0.12500E-01  0.12500E-01 -0.25000E-01  0.00000E+00  0.00000E+00  0.00000E+00    0.17369E+02  0.18070E+02 -0.35439E+02 -0.26998E+01  0.19037E+01  0.12804E+02      982.00
  0.45959E-01  0.58018E+02    0.25000E-01  0.25000E-01 -0.50000E-01  0.00000E+00  0.00000E+00  0.00000E+00    0.17515E+02  0.17925E+02 -0.35440E+02 -0.26611E+01  0.20070E+01  0.12996E+02      982.00
  0.68865E-01  0.58223E+02    0.37500E-01  0.37500E-01 -0.75000E-01  0.00000E+00  0.00000E+00  0.00000E+00    0.17645E+02  0.17828E+02 -0.35473E+02 -0.26275E+01  0.20881E+01  0.13226E+02      982.00
  0.91713E-01  0.58488E+02    0.50000E-01  0.50000E-01 -0.10000E+00  0.00000E+00  0.00000E+00  0.00000E+00    0.17761E+02  0.17774E+02 -0.35535E+02 -0.25969E+01  0.21470E+01  0.13487E+02      982.00
  0.11450E+00  0.58802E+02    0.62500E-01  0.62500E-01 -0.12500E+00  0.00000E+00  0.00000E+00  0.00000E+00    0.17865E+02  0.17756E+02 -0.35621E+02 -0.25669E+01  0.21851E+01  0.13767E+02      982.00
  0.13721E+00  0.59150E+02    0.75000E-01  0.75000E-01 -0.15000E+00  0.00000E+00  0.00000E+00  0.00000E+00    0.17959E+02  0.17767E+02 -0.35726E+02 -0.25351E+01  0.22037E+01  0.14060E+02      982.00
  0.15986E+00  0.59523E+02    0.87500E-01  0.87500E-01 -0.17500E+00  0.00000E+00  0.00000E+00  0.00000E+00    0.18049E+02  0.17797E+02 -0.35846E+02 -0.24931E+01  0.22049E+01  0.14360E+02      982.00
  0.18245E+00  0.59885E+02    0.10000E+00  0.10000E+00 -0.20000E+00  0.00000E+00  0.00000E+00  0.00000E+00    0.18114E+02  0.17849E+02 -0.35963E+02 -0.24692E+01  0.21906E+01  0.14646E+02      982.00
  0.20497E+00  0.60294E+02    0.11250E+00  0.11250E+00 -0.22500E+00  0.00000E+00  0.00000E+00  0.00000E+00    0.18186E+02  0.17911E+02 -0.36097E+02 -0.24038E+01  0.21486E+01  0.14971E+02      982.00
  0.22742E+00  0.60665E+02    0.12500E+00  0.12500E+00 -0.25000E+00  0.00000E+00  0.00000E+00  0.00000E+00    0.18245E+02  0.17981E+02 -0.36226E+02 -0.23653E+01  0.21105E+01  0.15246E+02      982.00
  0.24981E+00  0.61005E+02    0.13750E+00  0.13750E+00 -0.27500E+00  0.00000E+00  0.00000E+00  0.00000E+00    0.18300E+02  0.18051E+02 -0.36351E+02 -0.23419E+01  0.20803E+01  0.15480E+02      982.00
  0.27215E+00  0.61352E+02    0.15000E+00  0.15000E+00 -0.30000E+00  0.00000E+00  0.00000E+00  0.00000E+00    0.18355E+02  0.18123E+02 -0.36477E+02 -0.23032E+01  0.20365E+01  0.15724E+02      982.00
  0.29445E+00  0.61681E+02    0.16250E+00  0.16250E+00 -0.32500E+00  0.00000E+00  0.00000E+00  0.00000E+00    0.18408E+02  0.18192E+02 -0.36600E+02 -0.22655E+01  0.19925E+01  0.15950E+02      982.00
  0.31670E+00  0.61991E+02    0.17500E+00  0.17500E+00 -0.35000E+00  0.00000E+00  0.00000E+00  0.00000E+00    0.18460E+02  0.18257E+02 -0.36717E+02 -0.22299E+01  0.19496E+01  0.16157E+02      982.00
  0.33891E+00  0.62282E+02    0.18750E+00  0.18750E+00 -0.37500E+00  0.00000E+00  0.00000E+00  0.00000E+00    0.18511E+02  0.18319E+02 -0.36830E+02 -0.21972E+01  0.19092E+01  0.16346E+02      982.00
  0.36109E+00  0.62539E+02    0.20000E+00  0.20000E+00 -0.40000E+00  0.00000E+00  0.00000E+00  0.00000E+00    0.18562E+02  0.18370E+02 -0.36932E+02 -0.21760E+01  0.18820E+01  0.16506E+02      982.00
  0.38323E+00  0.62775E+02    0.21250E+00  0.21250E+00 -0.42500E+00  0.00000E+00  0.00000E+00  0.00000E+00    0.18606E+02  0.18421E+02 -0.37026E+02 -0.21454E+01  0.18420E+01  0.16654E+02      982.00
  0.40535E+00  0.63014E+02    0.22500E+00  0.22500E+00 -0.45000E+00  0.00000E+00  0.00000E+00  0.00000E+00    0.18656E+02  0.18468E+02 -0.37124E+02 -0.21230E+01  0.18113E+01  0.16797E+02      982.00
  0.42745E+00  0.63231E+02    0.23750E+00  0.23750E+00 -0.47500E+00  0.00000E+00  0.00000E+00  0.00000E+00    0.18702E+02  0.18511E+02 -0.37213E+02 -0.20969E+01  0.17750E+01  0.16928E+02      982.00
  0.44951E+00  0.63424E+02    0.25000E+00  0.25000E+00 -0.50000E+00  0.00000E+00  0.00000E+00  0.00000E+00    0.18747E+02  0.18547E+02 -0.37294E+02 -0.20809E+01  0.17508E+01  0.17040E+02      982.00
  0.47157E+00  0.63637E+02    0.26250E+00  0.26250E+00 -0.52500E+00  0.00000E+00  0.00000E+00  0.00000E+00    0.18800E+02  0.18583E+02 -0.37383E+02 -0.20590E+01  0.17183E+01  0.17163E+02      982.00
  0.49359E+00  0.63806E+02    0.27500E+00  0.27500E+00 -0.55000E+00  0.00000E+00  0.00000E+00  0.00000E+00    0.18847E+02  0.18611E+02 -0.37458E+02 -0.20496E+01  0.17012E+01  0.17253E+02      982.00
  0.51561E+00  0.63962E+02    0.28750E+00  0.28750E+00 -0.57500E+00  0.00000E+00  0.00000E+00  0.00000E+00    0.18893E+02  0.18634E+02 -0.37527E+02 -0.20426E+01  0.16875E+01  0.17334E+02      982.00
  0.53761E+00  0.64106E+02    0.30000E+00  0.30000E+00 -0.60000E+00  0.00000E+00  0.00000E+00  0.00000E+00    0.18938E+02  0.18654E+02 -0.37592E+02 -0.20373E+01  0.16760E+01  0.17407E+02      982.00
  0.55960E+00  0.64227E+02    0.31250E+00  0.31250E+00 -0.62500E+00  0.00000E+00  0.00000E+00  0.00000E+00    0.18978E+02  0.18675E+02 -0.37653E+02 -0.20434E+01  0.16813E+01  0.17457E+02      982.00
  0.58158E+00  0.64354E+02    0.32500E+00  0.32500E+00 -0.65000E+00  0.00000E+00  0.00000E+00  0.00000E+00    0.19024E+02  0.18676E+02 -0.37701E+02 -0.20268E+01  0.16523E+01  0.17539E+02      982.00
  0.60355E+00  0.64474E+02    0.33750E+00  0.33750E+00 -0.67500E+00  0.00000E+00  0.00000E+00  0.00000E+00    0.19069E+02  0.18689E+02 -0.37758E+02 -0.20251E+01  0.16439E+01  0.17593E+02      982.00
  0.62551E+00  0.64576E+02    0.35000E+00  0.35000E+00 -0.70000E+00  0.00000E+00  0.00000E+00  0.00000E+00    0.19109E+02  0.18697E+02 -0.37806E+02 -0.20250E+01  0.16384E+01  0.17641E+02      982.00
  0.64747E+00  0.64672E+02    0.36250E+00  0.36250E+00 -0.72500E+00  0.00000E+00  0.00000E+00  0.00000E+00    0.19149E+02  0.18703E+02 -0.37852E+02 -0.20257E+01  0.16343E+01  0.17685E+02      982.00
  0.66942E+00  0.64762E+02    0.37500E+00  0.37500E+00 -0.75000E+00  0.00000E+00  0.00000E+00  0.00000E+00    0.19188E+02  0.18707E+02 -0.37894E+02 -0.20269E+01  0.16310E+01  0.17726E+02      982.00
  0.69136E+00  0.64845E+02    0.38750E+00  0.38750E+00 -0.77500E+00  0.00000E+00  0.00000E+00  0.00000E+00    0.19225E+02  0.18709E+02 -0.37934E+02 -0.20287E+01  0.16284E+01  0.17763E+02      982.00
  0.71330E+00  0.64922E+02    0.40000E+00  0.40000E+00 -0.80000E+00  0.00000E+00  0.00000E+00  0.00000E+00    0.19262E+02  0.18710E+02 -0.37971E+02 -0.20308E+01  0.16263E+01  0.17797E+02      982.00
  0.73523E+00  0.64994E+02    0.41250E+00  0.41250E+00 -0.82500E+00  0.00000E+00  0.00000E+00  0.00000E+00    0.19297E+02  0.18709E+02 -0.38006E+02 -0.20333E+01  0.16247E+01  0.17829E+02      982.00
  0.75716E+00  0.65061E+02    0.42500E+00  0.42500E+00 -0.85000E+00  0.00000E+00  0.00000E+00  0.00000E+00    0.19332E+02  0.18707E+02 -0.38038E+02 -0.20361E+01  0.16236E+01  0.17858E+02      982.00
  0.77908E+00  0.65159E+02    0.43750E+00  0.43750E+00 -0.87500E+00  0.00000E+00  0.00000E+00  0.00000E+00    0.19387E+02  0.18696E+02 -0.38083E+02 -0.20380E+01  0.16187E+01  0.17905E+02      982.00
  0.80100E+00  0.65182E+02    0.45000E+00  0.45000E+00 -0.90000E+00  0.00000E+00  0.00000E+00  0.00000E+00    0.19400E+02  0.18698E+02 -0.38097E+02 -0.20418E+01  0.16211E+01  0.17910E+02      982.00
  0.82292E+00  0.65267E+02    0.46250E+00  0.46250E+00 -0.92500E+00  0.00000E+00  0.00000E+00  0.00000E+00    0.19452E+02  0.18684E+02 -0.38136E+02 -0.20453E+01  0.16186E+01  0.17950E+02      982.00
  0.84483E+00  0.65315E+02    0.47500E+00  0.47500E+00 -0.95000E+00  0.00000E+00  0.00000E+00  0.00000E+00    0.19486E+02  0.18673E+02 -0.38159E+02 -0.20487E+01  0.16178E+01  0.17971E+02      982.00
  0.86674E+00  0.65362E+02    0.48750E+00  0.48750E+00 -0.97500E+00  0.00000E+00  0.00000E+00  0.00000E+00    0.19517E+02  0.18665E+02 -0.38182E+02 -0.20526E+01  0.16181E+01  0.17990E+02      982.00
  0.88864E+00  0.65352E+02    0.50000E+00  0.50000E+00 -0.10000E+01  0.00000E+00  0.00000E+00  0.00000E+00    0.19498E+02  0.18681E+02 -0.38180E+02 -0.20526E+01  0.16229E+01  0.17982E+02      982.00
