          Evm          Svm            E11          E22          E33          E23          E13          E12         SDEV11       SDEV22       SDEV33       SDEV23       SDEV13       SDEV12      TEMP
  0.00000E+00  0.62373E+02    0.00000E+00  0.00000E+00  0.00000E+00  0.00000E+00  0.00000E+00  0.00000E+00    0.21265E+02  0.17746E+02 -0.39011E+02 -0.45215E+01  0.55172E+01  0.10071E+02      982.00
  0.23454E-01  0.62414E+02    0.12500E-01  0.12500E-01 -0.25000E-01  0.00000E+00  0.00000E+00  0.00000E+00    0.20864E+02  0.18108E+02 -0.38972E+02 -0.47508E+01  0.54403E+01  0.10261E+02      982.00
  0.46870E-01  0.62426E+02    0.25000E-01  0.25000E-01 -0.50000E-01  0.00000E+00  0.00000E+00  0.00000E+00    0.20580E+02  0.18351E+02 -0.38931E+02 -0.48518E+01  0.53662E+01  0.10426E+02      982.00
  0.70256E-01  0.62458E+02    0.37500E-01  0.37500E-01 -0.75000E-01  0.00000E+00  0.00000E+00  0.00000E+00    0.20392E+02  0.18521E+02 -0.38913E+02 -0.48626E+01  0.52597E+01  0.10606E+02      982.00
  0.93620E-01  0.62503E+02    0.50000E-01  0.50000E-01 -0.10000E+00  0.00000E+00  0.00000E+00  0.00000E+00    0.20277E+02  0.18627E+02 -0.38904E+02 -0.47987E+01  0.51243E+01  0.10821E+02      982.00
  0.11696E+00  0.62582E+02    0.62500E-01  0.62500E-01 -0.12500E+00  0.00000E+00  0.00000E+00  0.00000E+00    0.20222E+02  0.18693E+02 -0.38915E+02 -0.46761E+01  0.49629E+01  0.11074E+02      982.00
  0.14028E+00  0.62691E+02    0.75000E-01  0.75000E-01 -0.15000E+00  0.00000E+00  0.00000E+00  0.00000E+00    0.20217E+02  0.18724E+02 -0.38941E+02 -0.45060E+01  0.47818E+01  0.11358E+02      982.00
  0.16357E+00  0.62808E+02    0.87500E-01  0.87500E-01 -0.17500E+00  0.00000E+00  0.00000E+00  0.00000E+00    0.20234E+02  0.18731E+02 -0.38965E+02 -0.43018E+01  0.45782E+01  0.11672E+02      982.00
  0.18684E+00  0.62947E+02    0.10000E+00  0.10000E+00 -0.20000E+00  0.00000E+00  0.00000E+00  0.00000E+00    0.20264E+02  0.18730E+02 -0.38994E+02 -0.40937E+01  0.43787E+01  0.11993E+02      982.00
  0.21007E+00  0.63093E+02    0.11250E+00  0.11250E+00 -0.22500E+00  0.00000E+00  0.00000E+00  0.00000E+00    0.20295E+02  0.18728E+02 -0.39023E+02 -0.38651E+01  0.41563E+01  0.12328E+02      982.00
  0.23326E+00  0.63258E+02    0.12500E+00  0.12500E+00 -0.25000E+00  0.00000E+00  0.00000E+00  0.00000E+00    0.20324E+02  0.18734E+02 -0.39059E+02 -0.36272E+01  0.39222E+01  0.12669E+02      982.00
  0.25642E+00  0.63427E+02    0.13750E+00  0.13750E+00 -0.27500E+00  0.00000E+00  0.00000E+00  0.00000E+00    0.20346E+02  0.18747E+02 -0.39093E+02 -0.33781E+01  0.36747E+01  0.13010E+02      982.00
  0.27953E+00  0.63598E+02    0.15000E+00  0.15000E+00 -0.30000E+00  0.00000E+00  0.00000E+00  0.00000E+00    0.20357E+02  0.18770E+02 -0.39128E+02 -0.31276E+01  0.34220E+01  0.13338E+02      982.00
  0.30260E+00  0.63775E+02    0.16250E+00  0.16250E+00 -0.32500E+00  0.00000E+00  0.00000E+00  0.00000E+00    0.20359E+02  0.18809E+02 -0.39167E+02 -0.28755E+01  0.31632E+01  0.13650E+02      982.00
  0.32563E+00  0.63950E+02    0.17500E+00  0.17500E+00 -0.35000E+00  0.00000E+00  0.00000E+00  0.00000E+00    0.20349E+02  0.18854E+02 -0.39203E+02 -0.26346E+01  0.29135E+01  0.13948E+02      982.00
  0.34862E+00  0.64124E+02    0.18750E+00  0.18750E+00 -0.37500E+00  0.00000E+00  0.00000E+00  0.00000E+00    0.20330E+02  0.18915E+02 -0.39244E+02 -0.23932E+01  0.26589E+01  0.14222E+02      982.00
  0.37157E+00  0.64300E+02    0.20000E+00  0.20000E+00 -0.40000E+00  0.00000E+00  0.00000E+00  0.00000E+00    0.20303E+02  0.18984E+02 -0.39287E+02 -0.21697E+01  0.24194E+01  0.14477E+02      982.00
  0.39448E+00  0.64474E+02    0.21250E+00  0.21250E+00 -0.42500E+00  0.00000E+00  0.00000E+00  0.00000E+00    0.20271E+02  0.19061E+02 -0.39331E+02 -0.19649E+01  0.21958E+01  0.14709E+02      982.00
  0.41736E+00  0.64637E+02    0.22500E+00  0.22500E+00 -0.45000E+00  0.00000E+00  0.00000E+00  0.00000E+00    0.20231E+02  0.19138E+02 -0.39369E+02 -0.17862E+01  0.19972E+01  0.14925E+02      982.00
  0.44020E+00  0.64803E+02    0.23750E+00  0.23750E+00 -0.47500E+00  0.00000E+00  0.00000E+00  0.00000E+00    0.20193E+02  0.19217E+02 -0.39411E+02 -0.16350E+01  0.18260E+01  0.15122E+02      982.00
  0.46300E+00  0.64969E+02    0.25000E+00  0.25000E+00 -0.50000E+00  0.00000E+00  0.00000E+00  0.00000E+00    0.20156E+02  0.19297E+02 -0.39453E+02 -0.15124E+01  0.16825E+01  0.15307E+02      982.00
  0.48578E+00  0.65131E+02    0.26250E+00  0.26250E+00 -0.52500E+00  0.00000E+00  0.00000E+00  0.00000E+00    0.20114E+02  0.19381E+02 -0.39495E+02 -0.14178E+01  0.15640E+01  0.15477E+02      982.00
  0.50852E+00  0.65285E+02    0.27500E+00  0.27500E+00 -0.55000E+00  0.00000E+00  0.00000E+00  0.00000E+00    0.20076E+02  0.19453E+02 -0.39529E+02 -0.13453E+01  0.14713E+01  0.15644E+02      982.00
  0.53122E+00  0.65431E+02    0.28750E+00  0.28750E+00 -0.57500E+00  0.00000E+00  0.00000E+00  0.00000E+00    0.20041E+02  0.19521E+02 -0.39561E+02 -0.12918E+01  0.13987E+01  0.15797E+02      982.00
  0.55389E+00  0.65575E+02    0.30000E+00  0.30000E+00 -0.60000E+00  0.00000E+00  0.00000E+00  0.00000E+00    0.20000E+02  0.19595E+02 -0.39595E+02 -0.12572E+01  0.13401E+01  0.15942E+02      982.00
  0.57654E+00  0.65714E+02    0.31250E+00  0.31250E+00 -0.62500E+00  0.00000E+00  0.00000E+00  0.00000E+00    0.19971E+02  0.19651E+02 -0.39622E+02 -0.12373E+01  0.13037E+01  0.16086E+02      982.00
  0.59915E+00  0.65840E+02    0.32500E+00  0.32500E+00 -0.65000E+00  0.00000E+00  0.00000E+00  0.00000E+00    0.19939E+02  0.19704E+02 -0.39643E+02 -0.12267E+01  0.12763E+01  0.16222E+02      982.00
  0.62173E+00  0.65970E+02    0.33750E+00  0.33750E+00 -0.67500E+00  0.00000E+00  0.00000E+00  0.00000E+00    0.19912E+02  0.19756E+02 -0.39669E+02 -0.12251E+01  0.12578E+01  0.16352E+02      982.00
  0.64428E+00  0.66089E+02    0.35000E+00  0.35000E+00 -0.70000E+00  0.00000E+00  0.00000E+00  0.00000E+00    0.19879E+02  0.19813E+02 -0.39692E+02 -0.12330E+01  0.12438E+01  0.16469E+02      982.00
  0.66680E+00  0.66198E+02    0.36250E+00  0.36250E+00 -0.72500E+00  0.00000E+00  0.00000E+00  0.00000E+00    0.19852E+02  0.19854E+02 -0.39706E+02 -0.12449E+01  0.12403E+01  0.16590E+02      982.00
  0.68929E+00  0.66305E+02    0.37500E+00  0.37500E+00 -0.75000E+00  0.00000E+00  0.00000E+00  0.00000E+00    0.19829E+02  0.19892E+02 -0.39721E+02 -0.12607E+01  0.12415E+01  0.16704E+02      982.00
  0.71176E+00  0.66411E+02    0.38750E+00  0.38750E+00 -0.77500E+00  0.00000E+00  0.00000E+00  0.00000E+00    0.19800E+02  0.19937E+02 -0.39738E+02 -0.12824E+01  0.12429E+01  0.16811E+02      982.00
  0.73419E+00  0.66502E+02    0.40000E+00  0.40000E+00 -0.80000E+00  0.00000E+00  0.00000E+00  0.00000E+00    0.19779E+02  0.19967E+02 -0.39746E+02 -0.13050E+01  0.12512E+01  0.16914E+02      982.00
  0.75661E+00  0.66593E+02    0.41250E+00  0.41250E+00 -0.82500E+00  0.00000E+00  0.00000E+00  0.00000E+00    0.19762E+02  0.19994E+02 -0.39755E+02 -0.13286E+01  0.12618E+01  0.17014E+02      982.00
  0.77899E+00  0.66689E+02    0.42500E+00  0.42500E+00 -0.85000E+00  0.00000E+00  0.00000E+00  0.00000E+00    0.19736E+02  0.20028E+02 -0.39764E+02 -0.13597E+01  0.12735E+01  0.17120E+02      982.00
  0.80135E+00  0.66764E+02    0.43750E+00  0.43750E+00 -0.87500E+00  0.00000E+00  0.00000E+00  0.00000E+00    0.19720E+02  0.20049E+02 -0.39769E+02 -0.13865E+01  0.12867E+01  0.17206E+02      982.00
  0.82369E+00  0.66840E+02    0.45000E+00  0.45000E+00 -0.90000E+00  0.00000E+00  0.00000E+00  0.00000E+00    0.19708E+02  0.20067E+02 -0.39775E+02 -0.14128E+01  0.13015E+01  0.17289E+02      982.00
  0.84601E+00  0.66906E+02    0.46250E+00  0.46250E+00 -0.92500E+00  0.00000E+00  0.00000E+00  0.00000E+00    0.19697E+02  0.20080E+02 -0.39778E+02 -0.14386E+01  0.13162E+01  0.17366E+02      982.00
  0.86830E+00  0.66967E+02    0.47500E+00  0.47500E+00 -0.95000E+00  0.00000E+00  0.00000E+00  0.00000E+00    0.19687E+02  0.20091E+02 -0.39778E+02 -0.14642E+01  0.13312E+01  0.17441E+02      982.00
  0.89058E+00  0.67030E+02    0.48750E+00  0.48750E+00 -0.97500E+00  0.00000E+00  0.00000E+00  0.00000E+00    0.19680E+02  0.20102E+02 -0.39782E+02 -0.14893E+01  0.13458E+01  0.17512E+02      982.00
  0.91283E+00  0.67082E+02    0.50000E+00  0.50000E+00 -0.10000E+01  0.00000E+00  0.00000E+00  0.00000E+00    0.19673E+02  0.20110E+02 -0.39782E+02 -0.15138E+01  0.13596E+01  0.17574E+02      982.00
