          Evm          Svm            E11          E22          E33          E23          E13          E12         SDEV11       SDEV22       SDEV33       SDEV23       SDEV13       SDEV12      TEMP
  0.00000E+00  0.58955E+02    0.00000E+00  0.00000E+00  0.00000E+00  0.00000E+00  0.00000E+00  0.00000E+00    0.11209E+02  0.25373E+02 -0.36582E+02 -0.34616E+01 -0.27366E+01 -0.92347E+01      982.00
  0.23269E-01  0.59398E+02    0.12500E-01  0.12500E-01 -0.25000E-01  0.00000E+00  0.00000E+00  0.00000E+00    0.11498E+02  0.25348E+02 -0.36846E+02 -0.35750E+01 -0.30188E+01 -0.93789E+01      982.00
  0.46531E-01  0.59850E+02    0.25000E-01  0.25000E-01 -0.50000E-01  0.00000E+00  0.00000E+00  0.00000E+00    0.11888E+02  0.25255E+02 -0.37143E+02 -0.36583E+01 -0.33365E+01 -0.94919E+01      982.00
  0.69804E-01  0.60128E+02    0.37500E-01  0.37500E-01 -0.75000E-01  0.00000E+00  0.00000E+00  0.00000E+00    0.12359E+02  0.25011E+02 -0.37370E+02 -0.36903E+01 -0.36673E+01 -0.95209E+01      982.00
  0.93110E-01  0.60282E+02    0.50000E-01  0.50000E-01 -0.10000E+00  0.00000E+00  0.00000E+00  0.00000E+00    0.12749E+02  0.24780E+02 -0.37529E+02 -0.38042E+01 -0.38455E+01 -0.94636E+01      982.00
  0.11646E+00  0.60500E+02    0.62500E-01  0.62500E-01 -0.12500E+00  0.00000E+00  0.00000E+00  0.00000E+00    0.12991E+02  0.24717E+02 -0.37709E+02 -0.40353E+01 -0.38608E+01 -0.93854E+01      982.00
  0.13983E+00  0.60736E+02    0.75000E-01  0.75000E-01 -0.15000E+00  0.00000E+00  0.00000E+00  0.00000E+00    0.13124E+02  0.24770E+02 -0.37894E+02 -0.42896E+01 -0.37669E+01 -0.92828E+01      982.00
  0.16323E+00  0.61042E+02    0.87500E-01  0.87500E-01 -0.17500E+00  0.00000E+00  0.00000E+00  0.00000E+00    0.13223E+02  0.24887E+02 -0.38110E+02 -0.45246E+01 -0.36783E+01 -0.92082E+01      982.00
  0.18664E+00  0.61389E+02    0.10000E+00  0.10000E+00 -0.20000E+00  0.00000E+00  0.00000E+00  0.00000E+00    0.13294E+02  0.25050E+02 -0.38344E+02 -0.47184E+01 -0.35969E+01 -0.91533E+01      982.00
  0.21006E+00  0.61767E+02    0.11250E+00  0.11250E+00 -0.22500E+00  0.00000E+00  0.00000E+00  0.00000E+00    0.13350E+02  0.25243E+02 -0.38593E+02 -0.48666E+01 -0.35299E+01 -0.91176E+01      982.00
  0.23349E+00  0.62163E+02    0.12500E+00  0.12500E+00 -0.25000E+00  0.00000E+00  0.00000E+00  0.00000E+00    0.13406E+02  0.25447E+02 -0.38853E+02 -0.49708E+01 -0.34860E+01 -0.90999E+01      982.00
  0.25693E+00  0.62572E+02    0.13750E+00  0.13750E+00 -0.27500E+00  0.00000E+00  0.00000E+00  0.00000E+00    0.13460E+02  0.25661E+02 -0.39121E+02 -0.50389E+01 -0.34571E+01 -0.90945E+01      982.00
  0.28037E+00  0.62984E+02    0.15000E+00  0.15000E+00 -0.30000E+00  0.00000E+00  0.00000E+00  0.00000E+00    0.13517E+02  0.25874E+02 -0.39391E+02 -0.50768E+01 -0.34444E+01 -0.90978E+01      982.00
  0.30383E+00  0.63387E+02    0.16250E+00  0.16250E+00 -0.32500E+00  0.00000E+00  0.00000E+00  0.00000E+00    0.13574E+02  0.26084E+02 -0.39657E+02 -0.50918E+01 -0.34406E+01 -0.91045E+01      982.00
  0.32729E+00  0.63785E+02    0.17500E+00  0.17500E+00 -0.35000E+00  0.00000E+00  0.00000E+00  0.00000E+00    0.13641E+02  0.26281E+02 -0.39922E+02 -0.50885E+01 -0.34544E+01 -0.91170E+01      982.00
  0.35076E+00  0.64175E+02    0.18750E+00  0.18750E+00 -0.37500E+00  0.00000E+00  0.00000E+00  0.00000E+00    0.13715E+02  0.26468E+02 -0.40182E+02 -0.50707E+01 -0.34799E+01 -0.91298E+01      982.00
  0.37424E+00  0.64573E+02    0.20000E+00  0.20000E+00 -0.40000E+00  0.00000E+00  0.00000E+00  0.00000E+00    0.13791E+02  0.26660E+02 -0.40451E+02 -0.50386E+01 -0.35170E+01 -0.91384E+01      982.00
  0.39773E+00  0.64945E+02    0.21250E+00  0.21250E+00 -0.42500E+00  0.00000E+00  0.00000E+00  0.00000E+00    0.13883E+02  0.26826E+02 -0.40708E+02 -0.49935E+01 -0.35648E+01 -0.91411E+01      982.00
  0.42124E+00  0.65276E+02    0.22500E+00  0.22500E+00 -0.45000E+00  0.00000E+00  0.00000E+00  0.00000E+00    0.13981E+02  0.26961E+02 -0.40942E+02 -0.49443E+01 -0.36126E+01 -0.91400E+01      982.00
  0.44476E+00  0.65561E+02    0.23750E+00  0.23750E+00 -0.47500E+00  0.00000E+00  0.00000E+00  0.00000E+00    0.14074E+02  0.27069E+02 -0.41142E+02 -0.49073E+01 -0.36523E+01 -0.91427E+01      982.00
  0.46829E+00  0.65852E+02    0.25000E+00  0.25000E+00 -0.50000E+00  0.00000E+00  0.00000E+00  0.00000E+00    0.14164E+02  0.27187E+02 -0.41351E+02 -0.48614E+01 -0.36818E+01 -0.91386E+01      982.00
  0.49184E+00  0.66137E+02    0.26250E+00  0.26250E+00 -0.52500E+00  0.00000E+00  0.00000E+00  0.00000E+00    0.14252E+02  0.27303E+02 -0.41555E+02 -0.48104E+01 -0.37249E+01 -0.91266E+01      982.00
  0.51540E+00  0.66401E+02    0.27500E+00  0.27500E+00 -0.55000E+00  0.00000E+00  0.00000E+00  0.00000E+00    0.14339E+02  0.27409E+02 -0.41748E+02 -0.47583E+01 -0.37670E+01 -0.91096E+01      982.00
  0.53898E+00  0.66647E+02    0.28750E+00  0.28750E+00 -0.57500E+00  0.00000E+00  0.00000E+00  0.00000E+00    0.14424E+02  0.27506E+02 -0.41930E+02 -0.47059E+01 -0.38072E+01 -0.90881E+01      982.00
  0.56257E+00  0.66887E+02    0.30000E+00  0.30000E+00 -0.60000E+00  0.00000E+00  0.00000E+00  0.00000E+00    0.14502E+02  0.27606E+02 -0.42108E+02 -0.46543E+01 -0.38424E+01 -0.90617E+01      982.00
  0.58618E+00  0.67100E+02    0.31250E+00  0.31250E+00 -0.62500E+00  0.00000E+00  0.00000E+00  0.00000E+00    0.14580E+02  0.27689E+02 -0.42269E+02 -0.46024E+01 -0.38790E+01 -0.90335E+01      982.00
  0.60980E+00  0.67298E+02    0.32500E+00  0.32500E+00 -0.65000E+00  0.00000E+00  0.00000E+00  0.00000E+00    0.14655E+02  0.27765E+02 -0.42421E+02 -0.45509E+01 -0.39140E+01 -0.90027E+01      982.00
  0.63344E+00  0.67482E+02    0.33750E+00  0.33750E+00 -0.67500E+00  0.00000E+00  0.00000E+00  0.00000E+00    0.14727E+02  0.27836E+02 -0.42563E+02 -0.45001E+01 -0.39470E+01 -0.89696E+01      982.00
  0.65709E+00  0.67653E+02    0.35000E+00  0.35000E+00 -0.70000E+00  0.00000E+00  0.00000E+00  0.00000E+00    0.14794E+02  0.27902E+02 -0.42696E+02 -0.44501E+01 -0.39780E+01 -0.89346E+01      982.00
  0.68076E+00  0.67812E+02    0.36250E+00  0.36250E+00 -0.72500E+00  0.00000E+00  0.00000E+00  0.00000E+00    0.14858E+02  0.27964E+02 -0.42822E+02 -0.44011E+01 -0.40069E+01 -0.88981E+01      982.00
  0.70444E+00  0.67960E+02    0.37500E+00  0.37500E+00 -0.75000E+00  0.00000E+00  0.00000E+00  0.00000E+00    0.14917E+02  0.28022E+02 -0.42939E+02 -0.43530E+01 -0.40341E+01 -0.88604E+01      982.00
  0.72813E+00  0.68097E+02    0.38750E+00  0.38750E+00 -0.77500E+00  0.00000E+00  0.00000E+00  0.00000E+00    0.14973E+02  0.28076E+02 -0.43050E+02 -0.43060E+01 -0.40596E+01 -0.88220E+01      982.00
  0.75184E+00  0.68224E+02    0.40000E+00  0.40000E+00 -0.80000E+00  0.00000E+00  0.00000E+00  0.00000E+00    0.15025E+02  0.28128E+02 -0.43153E+02 -0.42599E+01 -0.40833E+01 -0.87830E+01      982.00
  0.77556E+00  0.68343E+02    0.41250E+00  0.41250E+00 -0.82500E+00  0.00000E+00  0.00000E+00  0.00000E+00    0.15073E+02  0.28177E+02 -0.43250E+02 -0.42149E+01 -0.41055E+01 -0.87437E+01      982.00
  0.79929E+00  0.68451E+02    0.42500E+00  0.42500E+00 -0.85000E+00  0.00000E+00  0.00000E+00  0.00000E+00    0.15125E+02  0.28216E+02 -0.43340E+02 -0.41666E+01 -0.41267E+01 -0.87064E+01      982.00
  0.82303E+00  0.68561E+02    0.43750E+00  0.43750E+00 -0.87500E+00  0.00000E+00  0.00000E+00  0.00000E+00    0.15161E+02  0.28270E+02 -0.43431E+02 -0.41264E+01 -0.41439E+01 -0.86610E+01      982.00
  0.84679E+00  0.68649E+02    0.45000E+00  0.45000E+00 -0.90000E+00  0.00000E+00  0.00000E+00  0.00000E+00    0.15203E+02  0.28303E+02 -0.43506E+02 -0.40820E+01 -0.41643E+01 -0.86279E+01      982.00
  0.87055E+00  0.68684E+02    0.46250E+00  0.46250E+00 -0.92500E+00  0.00000E+00  0.00000E+00  0.00000E+00    0.15231E+02  0.28321E+02 -0.43552E+02 -0.40256E+01 -0.41668E+01 -0.85739E+01      982.00
  0.89433E+00  0.68712E+02    0.47500E+00  0.47500E+00 -0.95000E+00  0.00000E+00  0.00000E+00  0.00000E+00    0.15259E+02  0.28332E+02 -0.43591E+02 -0.39703E+01 -0.41698E+01 -0.85283E+01      982.00
  0.91812E+00  0.68737E+02    0.48750E+00  0.48750E+00 -0.97500E+00  0.00000E+00  0.00000E+00  0.00000E+00    0.15284E+02  0.28344E+02 -0.43628E+02 -0.39168E+01 -0.41722E+01 -0.84845E+01      982.00
  0.94192E+00  0.68757E+02    0.50000E+00  0.50000E+00 -0.10000E+01  0.00000E+00  0.00000E+00  0.00000E+00    0.15310E+02  0.28350E+02 -0.43659E+02 -0.38608E+01 -0.41756E+01 -0.84483E+01      982.00
