          Evm          Svm            E11          E22          E33          E23          E13          E12         SDEV11       SDEV22       SDEV33       SDEV23       SDEV13       SDEV12      TEMP
  0.00000E+00  0.55234E+02    0.00000E+00  0.00000E+00  0.00000E+00  0.00000E+00  0.00000E+00  0.00000E+00    0.20484E+02  0.13569E+02 -0.34053E+02 -0.13419E+01  0.49091E+01  0.10457E+02      982.00
  0.23120E-01  0.55223E+02    0.12500E-01  0.12500E-01 -0.25000E-01  0.00000E+00  0.00000E+00  0.00000E+00    0.20076E+02  0.13979E+02 -0.34055E+02 -0.15314E+01  0.45209E+01  0.10708E+02      982.00
  0.46245E-01  0.55307E+02    0.25000E-01  0.25000E-01 -0.50000E-01  0.00000E+00  0.00000E+00  0.00000E+00    0.19662E+02  0.14433E+02 -0.34095E+02 -0.17077E+01  0.41435E+01  0.10992E+02      982.00
  0.69363E-01  0.55471E+02    0.37500E-01  0.37500E-01 -0.75000E-01  0.00000E+00  0.00000E+00  0.00000E+00    0.19292E+02  0.14870E+02 -0.34161E+02 -0.18539E+01  0.38075E+01  0.11297E+02      982.00
  0.92457E-01  0.55725E+02    0.50000E-01  0.50000E-01 -0.10000E+00  0.00000E+00  0.00000E+00  0.00000E+00    0.19021E+02  0.15238E+02 -0.34259E+02 -0.19648E+01  0.35263E+01  0.11619E+02      982.00
  0.11551E+00  0.56070E+02    0.62500E-01  0.62500E-01 -0.12500E+00  0.00000E+00  0.00000E+00  0.00000E+00    0.18860E+02  0.15532E+02 -0.34392E+02 -0.20462E+01  0.32934E+01  0.11960E+02      982.00
  0.13851E+00  0.56491E+02    0.75000E-01  0.75000E-01 -0.15000E+00  0.00000E+00  0.00000E+00  0.00000E+00    0.18803E+02  0.15756E+02 -0.34559E+02 -0.21026E+01  0.31029E+01  0.12315E+02      982.00
  0.16145E+00  0.56966E+02    0.87500E-01  0.87500E-01 -0.17500E+00  0.00000E+00  0.00000E+00  0.00000E+00    0.18816E+02  0.15934E+02 -0.34750E+02 -0.21419E+01  0.29459E+01  0.12676E+02      982.00
  0.18433E+00  0.57465E+02    0.10000E+00  0.10000E+00 -0.20000E+00  0.00000E+00  0.00000E+00  0.00000E+00    0.18880E+02  0.16075E+02 -0.34955E+02 -0.21680E+01  0.28120E+01  0.13030E+02      982.00
  0.20714E+00  0.57977E+02    0.11250E+00  0.11250E+00 -0.22500E+00  0.00000E+00  0.00000E+00  0.00000E+00    0.18983E+02  0.16185E+02 -0.35167E+02 -0.21729E+01  0.27159E+01  0.13373E+02      982.00
  0.22989E+00  0.58484E+02    0.12500E+00  0.12500E+00 -0.25000E+00  0.00000E+00  0.00000E+00  0.00000E+00    0.19097E+02  0.16282E+02 -0.35379E+02 -0.21717E+01  0.26332E+01  0.13702E+02      982.00
  0.25257E+00  0.58968E+02    0.13750E+00  0.13750E+00 -0.27500E+00  0.00000E+00  0.00000E+00  0.00000E+00    0.19214E+02  0.16368E+02 -0.35582E+02 -0.21555E+01  0.25878E+01  0.14004E+02      982.00
  0.27520E+00  0.59449E+02    0.15000E+00  0.15000E+00 -0.30000E+00  0.00000E+00  0.00000E+00  0.00000E+00    0.19328E+02  0.16455E+02 -0.35784E+02 -0.21366E+01  0.25539E+01  0.14301E+02      982.00
  0.29777E+00  0.59891E+02    0.16250E+00  0.16250E+00 -0.32500E+00  0.00000E+00  0.00000E+00  0.00000E+00    0.19427E+02  0.16541E+02 -0.35968E+02 -0.21172E+01  0.25228E+01  0.14576E+02      982.00
  0.32029E+00  0.60325E+02    0.17500E+00  0.17500E+00 -0.35000E+00  0.00000E+00  0.00000E+00  0.00000E+00    0.19516E+02  0.16632E+02 -0.36148E+02 -0.20924E+01  0.25145E+01  0.14840E+02      982.00
  0.34276E+00  0.60732E+02    0.18750E+00  0.18750E+00 -0.37500E+00  0.00000E+00  0.00000E+00  0.00000E+00    0.19589E+02  0.16727E+02 -0.36316E+02 -0.20678E+01  0.25130E+01  0.15089E+02      982.00
  0.36519E+00  0.61114E+02    0.20000E+00  0.20000E+00 -0.40000E+00  0.00000E+00  0.00000E+00  0.00000E+00    0.19644E+02  0.16827E+02 -0.36471E+02 -0.20451E+01  0.25152E+01  0.15325E+02      982.00
  0.38757E+00  0.61479E+02    0.21250E+00  0.21250E+00 -0.42500E+00  0.00000E+00  0.00000E+00  0.00000E+00    0.19686E+02  0.16931E+02 -0.36617E+02 -0.20248E+01  0.25232E+01  0.15553E+02      982.00
  0.40990E+00  0.61810E+02    0.22500E+00  0.22500E+00 -0.45000E+00  0.00000E+00  0.00000E+00  0.00000E+00    0.19707E+02  0.17040E+02 -0.36747E+02 -0.20110E+01  0.25233E+01  0.15766E+02      982.00
  0.43220E+00  0.62118E+02    0.23750E+00  0.23750E+00 -0.47500E+00  0.00000E+00  0.00000E+00  0.00000E+00    0.19710E+02  0.17155E+02 -0.36865E+02 -0.20037E+01  0.25189E+01  0.15968E+02      982.00
  0.45445E+00  0.62404E+02    0.25000E+00  0.25000E+00 -0.50000E+00  0.00000E+00  0.00000E+00  0.00000E+00    0.19697E+02  0.17275E+02 -0.36972E+02 -0.20033E+01  0.25082E+01  0.16159E+02      982.00
  0.47667E+00  0.62683E+02    0.26250E+00  0.26250E+00 -0.52500E+00  0.00000E+00  0.00000E+00  0.00000E+00    0.19675E+02  0.17401E+02 -0.37076E+02 -0.20087E+01  0.24951E+01  0.16346E+02      982.00
  0.49885E+00  0.62929E+02    0.27500E+00  0.27500E+00 -0.55000E+00  0.00000E+00  0.00000E+00  0.00000E+00    0.19636E+02  0.17528E+02 -0.37164E+02 -0.20225E+01  0.24700E+01  0.16518E+02      982.00
  0.52100E+00  0.63156E+02    0.28750E+00  0.28750E+00 -0.57500E+00  0.00000E+00  0.00000E+00  0.00000E+00    0.19585E+02  0.17659E+02 -0.37244E+02 -0.20421E+01  0.24379E+01  0.16679E+02      982.00
  0.54311E+00  0.63366E+02    0.30000E+00  0.30000E+00 -0.60000E+00  0.00000E+00  0.00000E+00  0.00000E+00    0.19527E+02  0.17789E+02 -0.37317E+02 -0.20657E+01  0.24003E+01  0.16829E+02      982.00
  0.56519E+00  0.63560E+02    0.31250E+00  0.31250E+00 -0.62500E+00  0.00000E+00  0.00000E+00  0.00000E+00    0.19465E+02  0.17919E+02 -0.37384E+02 -0.20915E+01  0.23589E+01  0.16968E+02      982.00
  0.58725E+00  0.63740E+02    0.32500E+00  0.32500E+00 -0.65000E+00  0.00000E+00  0.00000E+00  0.00000E+00    0.19397E+02  0.18049E+02 -0.37446E+02 -0.21186E+01  0.23130E+01  0.17097E+02      982.00
  0.60928E+00  0.63926E+02    0.33750E+00  0.33750E+00 -0.67500E+00  0.00000E+00  0.00000E+00  0.00000E+00    0.19340E+02  0.18173E+02 -0.37512E+02 -0.21416E+01  0.22755E+01  0.17225E+02      982.00
  0.63129E+00  0.64081E+02    0.35000E+00  0.35000E+00 -0.70000E+00  0.00000E+00  0.00000E+00  0.00000E+00    0.19276E+02  0.18292E+02 -0.37567E+02 -0.21639E+01  0.22333E+01  0.17332E+02      982.00
  0.65327E+00  0.64210E+02    0.36250E+00  0.36250E+00 -0.72500E+00  0.00000E+00  0.00000E+00  0.00000E+00    0.19207E+02  0.18406E+02 -0.37614E+02 -0.21870E+01  0.21874E+01  0.17421E+02      982.00
  0.67524E+00  0.64344E+02    0.37500E+00  0.37500E+00 -0.75000E+00  0.00000E+00  0.00000E+00  0.00000E+00    0.19150E+02  0.18513E+02 -0.37663E+02 -0.22028E+01  0.21496E+01  0.17510E+02      982.00
  0.69719E+00  0.64469E+02    0.38750E+00  0.38750E+00 -0.77500E+00  0.00000E+00  0.00000E+00  0.00000E+00    0.19098E+02  0.18613E+02 -0.37711E+02 -0.22147E+01  0.21154E+01  0.17590E+02      982.00
  0.71912E+00  0.64554E+02    0.40000E+00  0.40000E+00 -0.80000E+00  0.00000E+00  0.00000E+00  0.00000E+00    0.19038E+02  0.18706E+02 -0.37744E+02 -0.22259E+01  0.20754E+01  0.17645E+02      982.00
  0.74105E+00  0.64663E+02    0.41250E+00  0.41250E+00 -0.82500E+00  0.00000E+00  0.00000E+00  0.00000E+00    0.18995E+02  0.18792E+02 -0.37788E+02 -0.22312E+01  0.20474E+01  0.17711E+02      982.00
  0.76296E+00  0.64764E+02    0.42500E+00  0.42500E+00 -0.85000E+00  0.00000E+00  0.00000E+00  0.00000E+00    0.18957E+02  0.18872E+02 -0.37829E+02 -0.22332E+01  0.20231E+01  0.17770E+02      982.00
  0.78487E+00  0.64858E+02    0.43750E+00  0.43750E+00 -0.87500E+00  0.00000E+00  0.00000E+00  0.00000E+00    0.18923E+02  0.18945E+02 -0.37868E+02 -0.22328E+01  0.20014E+01  0.17824E+02      982.00
  0.80676E+00  0.64944E+02    0.45000E+00  0.45000E+00 -0.90000E+00  0.00000E+00  0.00000E+00  0.00000E+00    0.18893E+02  0.19012E+02 -0.37906E+02 -0.22306E+01  0.19821E+01  0.17872E+02      982.00
  0.82865E+00  0.64997E+02    0.46250E+00  0.46250E+00 -0.92500E+00  0.00000E+00  0.00000E+00  0.00000E+00    0.18856E+02  0.19073E+02 -0.37929E+02 -0.22267E+01  0.19565E+01  0.17901E+02      982.00
  0.85053E+00  0.65075E+02    0.47500E+00  0.47500E+00 -0.95000E+00  0.00000E+00  0.00000E+00  0.00000E+00    0.18834E+02  0.19130E+02 -0.37964E+02 -0.22220E+01  0.19408E+01  0.17942E+02      982.00
  0.87241E+00  0.65108E+02    0.48750E+00  0.48750E+00 -0.97500E+00  0.00000E+00  0.00000E+00  0.00000E+00    0.18808E+02  0.19168E+02 -0.37976E+02 -0.22070E+01  0.19243E+01  0.17965E+02      982.00
  0.89428E+00  0.65129E+02    0.50000E+00  0.50000E+00 -0.10000E+01  0.00000E+00  0.00000E+00  0.00000E+00    0.18777E+02  0.19207E+02 -0.37984E+02 -0.21906E+01  0.19014E+01  0.17983E+02      982.00
