          Evm          Svm            E11          E22          E33          E23          E13          E12         SDEV11       SDEV22       SDEV33       SDEV23       SDEV13       SDEV12      TEMP
  0.00000E+00  0.61788E+02    0.00000E+00  0.00000E+00  0.00000E+00  0.00000E+00  0.00000E+00  0.00000E+00    0.17135E+02  0.21384E+02 -0.38519E+02 -0.44356E+01 -0.60446E+01 -0.99540E+01      982.00
  0.23378E-01  0.61710E+02    0.12500E-01  0.12500E-01 -0.25000E-01  0.00000E+00  0.00000E+00  0.00000E+00    0.17190E+02  0.21412E+02 -0.38602E+02 -0.45271E+01 -0.57304E+01 -0.96972E+01      982.00
  0.46835E-01  0.61705E+02    0.25000E-01  0.25000E-01 -0.50000E-01  0.00000E+00  0.00000E+00  0.00000E+00    0.17285E+02  0.21419E+02 -0.38704E+02 -0.46530E+01 -0.54788E+01 -0.94729E+01      982.00
  0.70357E-01  0.61787E+02    0.37500E-01  0.37500E-01 -0.75000E-01  0.00000E+00  0.00000E+00  0.00000E+00    0.17394E+02  0.21441E+02 -0.38835E+02 -0.47871E+01 -0.52838E+01 -0.93016E+01      982.00
  0.93926E-01  0.61924E+02    0.50000E-01  0.50000E-01 -0.10000E+00  0.00000E+00  0.00000E+00  0.00000E+00    0.17498E+02  0.21484E+02 -0.38982E+02 -0.49042E+01 -0.51262E+01 -0.91771E+01      982.00
  0.11753E+00  0.62110E+02    0.62500E-01  0.62500E-01 -0.12500E+00  0.00000E+00  0.00000E+00  0.00000E+00    0.17592E+02  0.21554E+02 -0.39146E+02 -0.49903E+01 -0.50008E+01 -0.90951E+01      982.00
  0.14117E+00  0.62346E+02    0.75000E-01  0.75000E-01 -0.15000E+00  0.00000E+00  0.00000E+00  0.00000E+00    0.17684E+02  0.21649E+02 -0.39333E+02 -0.50400E+01 -0.49068E+01 -0.90534E+01      982.00
  0.16483E+00  0.62623E+02    0.87500E-01  0.87500E-01 -0.17500E+00  0.00000E+00  0.00000E+00  0.00000E+00    0.17767E+02  0.21771E+02 -0.39538E+02 -0.50621E+01 -0.48312E+01 -0.90440E+01      982.00
  0.18850E+00  0.62932E+02    0.10000E+00  0.10000E+00 -0.20000E+00  0.00000E+00  0.00000E+00  0.00000E+00    0.17843E+02  0.21915E+02 -0.39758E+02 -0.50615E+01 -0.47696E+01 -0.90595E+01      982.00
  0.21219E+00  0.63267E+02    0.11250E+00  0.11250E+00 -0.22500E+00  0.00000E+00  0.00000E+00  0.00000E+00    0.17913E+02  0.22079E+02 -0.39992E+02 -0.50430E+01 -0.47195E+01 -0.90931E+01      982.00
  0.23590E+00  0.63621E+02    0.12500E+00  0.12500E+00 -0.25000E+00  0.00000E+00  0.00000E+00  0.00000E+00    0.17978E+02  0.22257E+02 -0.40235E+02 -0.50108E+01 -0.46789E+01 -0.91384E+01      982.00
  0.25961E+00  0.63983E+02    0.13750E+00  0.13750E+00 -0.27500E+00  0.00000E+00  0.00000E+00  0.00000E+00    0.18029E+02  0.22452E+02 -0.40481E+02 -0.49695E+01 -0.46423E+01 -0.91909E+01      982.00
  0.28334E+00  0.64355E+02    0.15000E+00  0.15000E+00 -0.30000E+00  0.00000E+00  0.00000E+00  0.00000E+00    0.18087E+02  0.22646E+02 -0.40732E+02 -0.49192E+01 -0.46171E+01 -0.92441E+01      982.00
  0.30707E+00  0.64725E+02    0.16250E+00  0.16250E+00 -0.32500E+00  0.00000E+00  0.00000E+00  0.00000E+00    0.18143E+02  0.22841E+02 -0.40983E+02 -0.48635E+01 -0.45986E+01 -0.92956E+01      982.00
  0.33082E+00  0.65088E+02    0.17500E+00  0.17500E+00 -0.35000E+00  0.00000E+00  0.00000E+00  0.00000E+00    0.18195E+02  0.23035E+02 -0.41229E+02 -0.48043E+01 -0.45849E+01 -0.93427E+01      982.00
  0.35457E+00  0.65442E+02    0.18750E+00  0.18750E+00 -0.37500E+00  0.00000E+00  0.00000E+00  0.00000E+00    0.18234E+02  0.23236E+02 -0.41471E+02 -0.47411E+01 -0.45729E+01 -0.93842E+01      982.00
  0.37834E+00  0.65778E+02    0.20000E+00  0.20000E+00 -0.40000E+00  0.00000E+00  0.00000E+00  0.00000E+00    0.18278E+02  0.23423E+02 -0.41701E+02 -0.46780E+01 -0.45671E+01 -0.94177E+01      982.00
  0.40211E+00  0.66098E+02    0.21250E+00  0.21250E+00 -0.42500E+00  0.00000E+00  0.00000E+00  0.00000E+00    0.18318E+02  0.23603E+02 -0.41921E+02 -0.46143E+01 -0.45647E+01 -0.94441E+01      982.00
  0.42589E+00  0.66395E+02    0.22500E+00  0.22500E+00 -0.45000E+00  0.00000E+00  0.00000E+00  0.00000E+00    0.18343E+02  0.23783E+02 -0.42126E+02 -0.45502E+01 -0.45653E+01 -0.94636E+01      982.00
  0.44969E+00  0.66677E+02    0.23750E+00  0.23750E+00 -0.47500E+00  0.00000E+00  0.00000E+00  0.00000E+00    0.18372E+02  0.23951E+02 -0.42323E+02 -0.44865E+01 -0.45668E+01 -0.94749E+01      982.00
  0.47349E+00  0.66940E+02    0.25000E+00  0.25000E+00 -0.50000E+00  0.00000E+00  0.00000E+00  0.00000E+00    0.18395E+02  0.24112E+02 -0.42507E+02 -0.44234E+01 -0.45705E+01 -0.94799E+01      982.00
  0.49730E+00  0.67184E+02    0.26250E+00  0.26250E+00 -0.52500E+00  0.00000E+00  0.00000E+00  0.00000E+00    0.18413E+02  0.24267E+02 -0.42680E+02 -0.43611E+01 -0.45755E+01 -0.94787E+01      982.00
  0.52112E+00  0.67411E+02    0.27500E+00  0.27500E+00 -0.55000E+00  0.00000E+00  0.00000E+00  0.00000E+00    0.18425E+02  0.24417E+02 -0.42842E+02 -0.42998E+01 -0.45816E+01 -0.94720E+01      982.00
  0.54496E+00  0.67620E+02    0.28750E+00  0.28750E+00 -0.57500E+00  0.00000E+00  0.00000E+00  0.00000E+00    0.18430E+02  0.24562E+02 -0.42992E+02 -0.42394E+01 -0.45886E+01 -0.94601E+01      982.00
  0.56880E+00  0.67814E+02    0.30000E+00  0.30000E+00 -0.60000E+00  0.00000E+00  0.00000E+00  0.00000E+00    0.18429E+02  0.24703E+02 -0.43132E+02 -0.41800E+01 -0.45964E+01 -0.94435E+01      982.00
  0.59265E+00  0.67991E+02    0.31250E+00  0.31250E+00 -0.62500E+00  0.00000E+00  0.00000E+00  0.00000E+00    0.18422E+02  0.24840E+02 -0.43261E+02 -0.41215E+01 -0.46052E+01 -0.94227E+01      982.00
  0.61651E+00  0.68155E+02    0.32500E+00  0.32500E+00 -0.65000E+00  0.00000E+00  0.00000E+00  0.00000E+00    0.18409E+02  0.24973E+02 -0.43381E+02 -0.40641E+01 -0.46142E+01 -0.93980E+01      982.00
  0.64038E+00  0.68305E+02    0.33750E+00  0.33750E+00 -0.67500E+00  0.00000E+00  0.00000E+00  0.00000E+00    0.18390E+02  0.25103E+02 -0.43492E+02 -0.40075E+01 -0.46238E+01 -0.93698E+01      982.00
  0.66426E+00  0.68443E+02    0.35000E+00  0.35000E+00 -0.70000E+00  0.00000E+00  0.00000E+00  0.00000E+00    0.18365E+02  0.25230E+02 -0.43595E+02 -0.39519E+01 -0.46338E+01 -0.93384E+01      982.00
  0.68814E+00  0.68570E+02    0.36250E+00  0.36250E+00 -0.72500E+00  0.00000E+00  0.00000E+00  0.00000E+00    0.18335E+02  0.25355E+02 -0.43690E+02 -0.38973E+01 -0.46443E+01 -0.93040E+01      982.00
  0.71204E+00  0.68679E+02    0.37500E+00  0.37500E+00 -0.75000E+00  0.00000E+00  0.00000E+00  0.00000E+00    0.18291E+02  0.25482E+02 -0.43773E+02 -0.38399E+01 -0.46571E+01 -0.92642E+01      982.00
  0.73594E+00  0.68786E+02    0.38750E+00  0.38750E+00 -0.77500E+00  0.00000E+00  0.00000E+00  0.00000E+00    0.18252E+02  0.25603E+02 -0.43855E+02 -0.37861E+01 -0.46678E+01 -0.92245E+01      982.00
  0.75985E+00  0.68884E+02    0.40000E+00  0.40000E+00 -0.80000E+00  0.00000E+00  0.00000E+00  0.00000E+00    0.18204E+02  0.25725E+02 -0.43929E+02 -0.37380E+01 -0.46812E+01 -0.91830E+01      982.00
  0.78376E+00  0.68974E+02    0.41250E+00  0.41250E+00 -0.82500E+00  0.00000E+00  0.00000E+00  0.00000E+00    0.18155E+02  0.25843E+02 -0.43998E+02 -0.36870E+01 -0.46927E+01 -0.91387E+01      982.00
  0.80768E+00  0.69056E+02    0.42500E+00  0.42500E+00 -0.85000E+00  0.00000E+00  0.00000E+00  0.00000E+00    0.18101E+02  0.25961E+02 -0.44062E+02 -0.36367E+01 -0.47044E+01 -0.90923E+01      982.00
  0.83161E+00  0.69130E+02    0.43750E+00  0.43750E+00 -0.87500E+00  0.00000E+00  0.00000E+00  0.00000E+00    0.18043E+02  0.26077E+02 -0.44120E+02 -0.35872E+01 -0.47164E+01 -0.90438E+01      982.00
  0.85554E+00  0.69198E+02    0.45000E+00  0.45000E+00 -0.90000E+00  0.00000E+00  0.00000E+00  0.00000E+00    0.17981E+02  0.26193E+02 -0.44174E+02 -0.35387E+01 -0.47286E+01 -0.89934E+01      982.00
  0.87948E+00  0.69202E+02    0.46250E+00  0.46250E+00 -0.92500E+00  0.00000E+00  0.00000E+00  0.00000E+00    0.17903E+02  0.26288E+02 -0.44192E+02 -0.34723E+01 -0.47149E+01 -0.89305E+01      982.00
  0.90343E+00  0.69206E+02    0.47500E+00  0.47500E+00 -0.95000E+00  0.00000E+00  0.00000E+00  0.00000E+00    0.17827E+02  0.26381E+02 -0.44207E+02 -0.34133E+01 -0.47092E+01 -0.88678E+01      982.00
  0.92738E+00  0.69209E+02    0.48750E+00  0.48750E+00 -0.97500E+00  0.00000E+00  0.00000E+00  0.00000E+00    0.17748E+02  0.26473E+02 -0.44222E+02 -0.33565E+01 -0.47052E+01 -0.88055E+01      982.00
  0.95134E+00  0.69220E+02    0.50000E+00  0.50000E+00 -0.10000E+01  0.00000E+00  0.00000E+00  0.00000E+00    0.17690E+02  0.26546E+02 -0.44235E+02 -0.33201E+01 -0.47053E+01 -0.87641E+01      982.00
