          Evm          Svm            E11          E22          E33          E23          E13          E12         SDEV11       SDEV22       SDEV33       SDEV23       SDEV13       SDEV12      TEMP
  0.00000E+00  0.57615E+02    0.00000E+00  0.00000E+00  0.00000E+00  0.00000E+00  0.00000E+00  0.00000E+00    0.16009E+02  0.16867E+02 -0.32877E+02 -0.27441E+01  0.57233E+00  0.16964E+02      982.00
  0.21399E-01  0.57516E+02    0.12500E-01  0.12500E-01 -0.25000E-01  0.00000E+00  0.00000E+00  0.00000E+00    0.15928E+02  0.16969E+02 -0.32896E+02 -0.28661E+01  0.96601E+00  0.16782E+02      982.00
  0.42847E-01  0.57542E+02    0.25000E-01  0.25000E-01 -0.50000E-01  0.00000E+00  0.00000E+00  0.00000E+00    0.15925E+02  0.17043E+02 -0.32969E+02 -0.29376E+01  0.12371E+01  0.16674E+02      982.00
  0.64333E-01  0.57666E+02    0.37500E-01  0.37500E-01 -0.75000E-01  0.00000E+00  0.00000E+00  0.00000E+00    0.15957E+02  0.17124E+02 -0.33081E+02 -0.29697E+01  0.14297E+01  0.16628E+02      982.00
  0.85845E-01  0.57874E+02    0.50000E-01  0.50000E-01 -0.10000E+00  0.00000E+00  0.00000E+00  0.00000E+00    0.16011E+02  0.17218E+02 -0.33229E+02 -0.29749E+01  0.15771E+01  0.16633E+02      982.00
  0.10738E+00  0.58161E+02    0.62500E-01  0.62500E-01 -0.12500E+00  0.00000E+00  0.00000E+00  0.00000E+00    0.16084E+02  0.17320E+02 -0.33404E+02 -0.29644E+01  0.16763E+01  0.16694E+02      982.00
  0.12891E+00  0.58487E+02    0.75000E-01  0.75000E-01 -0.15000E+00  0.00000E+00  0.00000E+00  0.00000E+00    0.16167E+02  0.17430E+02 -0.33597E+02 -0.29368E+01  0.17503E+01  0.16781E+02      982.00
  0.15046E+00  0.58878E+02    0.87500E-01  0.87500E-01 -0.17500E+00  0.00000E+00  0.00000E+00  0.00000E+00    0.16265E+02  0.17549E+02 -0.33814E+02 -0.29118E+01  0.17997E+01  0.16908E+02      982.00
  0.17199E+00  0.59286E+02    0.10000E+00  0.10000E+00 -0.20000E+00  0.00000E+00  0.00000E+00  0.00000E+00    0.16368E+02  0.17669E+02 -0.34037E+02 -0.28840E+01  0.18335E+01  0.17047E+02      982.00
  0.19352E+00  0.59707E+02    0.11250E+00  0.11250E+00 -0.22500E+00  0.00000E+00  0.00000E+00  0.00000E+00    0.16476E+02  0.17790E+02 -0.34266E+02 -0.28566E+01  0.18576E+01  0.17194E+02      982.00
  0.21504E+00  0.60119E+02    0.12500E+00  0.12500E+00 -0.25000E+00  0.00000E+00  0.00000E+00  0.00000E+00    0.16584E+02  0.17907E+02 -0.34491E+02 -0.28205E+01  0.18739E+01  0.17339E+02      982.00
  0.23656E+00  0.60536E+02    0.13750E+00  0.13750E+00 -0.27500E+00  0.00000E+00  0.00000E+00  0.00000E+00    0.16698E+02  0.18022E+02 -0.34720E+02 -0.27965E+01  0.18866E+01  0.17481E+02      982.00
  0.25807E+00  0.60937E+02    0.15000E+00  0.15000E+00 -0.30000E+00  0.00000E+00  0.00000E+00  0.00000E+00    0.16812E+02  0.18132E+02 -0.34944E+02 -0.27746E+01  0.18958E+01  0.17613E+02      982.00
  0.27957E+00  0.61324E+02    0.16250E+00  0.16250E+00 -0.32500E+00  0.00000E+00  0.00000E+00  0.00000E+00    0.16926E+02  0.18234E+02 -0.35161E+02 -0.27453E+01  0.19021E+01  0.17742E+02      982.00
  0.30107E+00  0.61683E+02    0.17500E+00  0.17500E+00 -0.35000E+00  0.00000E+00  0.00000E+00  0.00000E+00    0.17039E+02  0.18330E+02 -0.35369E+02 -0.27257E+01  0.19071E+01  0.17848E+02      982.00
  0.32257E+00  0.62018E+02    0.18750E+00  0.18750E+00 -0.37500E+00  0.00000E+00  0.00000E+00  0.00000E+00    0.17150E+02  0.18418E+02 -0.35568E+02 -0.27073E+01  0.19102E+01  0.17941E+02      982.00
  0.34408E+00  0.62328E+02    0.20000E+00  0.20000E+00 -0.40000E+00  0.00000E+00  0.00000E+00  0.00000E+00    0.17259E+02  0.18498E+02 -0.35757E+02 -0.26891E+01  0.19118E+01  0.18021E+02      982.00
  0.36559E+00  0.62629E+02    0.21250E+00  0.21250E+00 -0.42500E+00  0.00000E+00  0.00000E+00  0.00000E+00    0.17372E+02  0.18568E+02 -0.35940E+02 -0.26627E+01  0.19118E+01  0.18099E+02      982.00
  0.38711E+00  0.62878E+02    0.22500E+00  0.22500E+00 -0.45000E+00  0.00000E+00  0.00000E+00  0.00000E+00    0.17468E+02  0.18635E+02 -0.36103E+02 -0.26515E+01  0.19111E+01  0.18147E+02      982.00
  0.40864E+00  0.63134E+02    0.23750E+00  0.23750E+00 -0.47500E+00  0.00000E+00  0.00000E+00  0.00000E+00    0.17575E+02  0.18691E+02 -0.36266E+02 -0.26258E+01  0.19077E+01  0.18204E+02      982.00
  0.43018E+00  0.63353E+02    0.25000E+00  0.25000E+00 -0.50000E+00  0.00000E+00  0.00000E+00  0.00000E+00    0.17672E+02  0.18740E+02 -0.36413E+02 -0.26056E+01  0.19041E+01  0.18241E+02      982.00
  0.45174E+00  0.63542E+02    0.26250E+00  0.26250E+00 -0.52500E+00  0.00000E+00  0.00000E+00  0.00000E+00    0.17756E+02  0.18789E+02 -0.36545E+02 -0.25944E+01  0.19004E+01  0.18265E+02      982.00
  0.47331E+00  0.63737E+02    0.27500E+00  0.27500E+00 -0.55000E+00  0.00000E+00  0.00000E+00  0.00000E+00    0.17855E+02  0.18824E+02 -0.36678E+02 -0.25686E+01  0.18937E+01  0.18296E+02      982.00
  0.49489E+00  0.63905E+02    0.28750E+00  0.28750E+00 -0.57500E+00  0.00000E+00  0.00000E+00  0.00000E+00    0.17942E+02  0.18856E+02 -0.36799E+02 -0.25481E+01  0.18875E+01  0.18315E+02      982.00
  0.51648E+00  0.64060E+02    0.30000E+00  0.30000E+00 -0.60000E+00  0.00000E+00  0.00000E+00  0.00000E+00    0.18026E+02  0.18885E+02 -0.36911E+02 -0.25286E+01  0.18807E+01  0.18330E+02      982.00
  0.53809E+00  0.64202E+02    0.31250E+00  0.31250E+00 -0.62500E+00  0.00000E+00  0.00000E+00  0.00000E+00    0.18106E+02  0.18909E+02 -0.37015E+02 -0.25093E+01  0.18733E+01  0.18341E+02      982.00
  0.55971E+00  0.64332E+02    0.32500E+00  0.32500E+00 -0.65000E+00  0.00000E+00  0.00000E+00  0.00000E+00    0.18183E+02  0.18930E+02 -0.37113E+02 -0.24904E+01  0.18655E+01  0.18349E+02      982.00
  0.58134E+00  0.64439E+02    0.33750E+00  0.33750E+00 -0.67500E+00  0.00000E+00  0.00000E+00  0.00000E+00    0.18249E+02  0.18944E+02 -0.37193E+02 -0.24760E+01  0.18601E+01  0.18355E+02      982.00
  0.60299E+00  0.64551E+02    0.35000E+00  0.35000E+00 -0.70000E+00  0.00000E+00  0.00000E+00  0.00000E+00    0.18321E+02  0.18959E+02 -0.37280E+02 -0.24581E+01  0.18519E+01  0.18359E+02      982.00
  0.62464E+00  0.64654E+02    0.36250E+00  0.36250E+00 -0.72500E+00  0.00000E+00  0.00000E+00  0.00000E+00    0.18390E+02  0.18970E+02 -0.37360E+02 -0.24402E+01  0.18435E+01  0.18361E+02      982.00
  0.64631E+00  0.64750E+02    0.37500E+00  0.37500E+00 -0.75000E+00  0.00000E+00  0.00000E+00  0.00000E+00    0.18456E+02  0.18979E+02 -0.37435E+02 -0.24227E+01  0.18350E+01  0.18362E+02      982.00
  0.66799E+00  0.64838E+02    0.38750E+00  0.38750E+00 -0.77500E+00  0.00000E+00  0.00000E+00  0.00000E+00    0.18520E+02  0.18985E+02 -0.37506E+02 -0.24058E+01  0.18266E+01  0.18361E+02      982.00
  0.68968E+00  0.64919E+02    0.40000E+00  0.40000E+00 -0.80000E+00  0.00000E+00  0.00000E+00  0.00000E+00    0.18582E+02  0.18989E+02 -0.37571E+02 -0.23895E+01  0.18183E+01  0.18360E+02      982.00
  0.71139E+00  0.64995E+02    0.41250E+00  0.41250E+00 -0.82500E+00  0.00000E+00  0.00000E+00  0.00000E+00    0.18641E+02  0.18991E+02 -0.37632E+02 -0.23738E+01  0.18101E+01  0.18358E+02      982.00
  0.73310E+00  0.65065E+02    0.42500E+00  0.42500E+00 -0.85000E+00  0.00000E+00  0.00000E+00  0.00000E+00    0.18699E+02  0.18991E+02 -0.37689E+02 -0.23588E+01  0.18021E+01  0.18356E+02      982.00
  0.75482E+00  0.65131E+02    0.43750E+00  0.43750E+00 -0.87500E+00  0.00000E+00  0.00000E+00  0.00000E+00    0.18754E+02  0.18989E+02 -0.37743E+02 -0.23445E+01  0.17943E+01  0.18354E+02      982.00
  0.77655E+00  0.65191E+02    0.45000E+00  0.45000E+00 -0.90000E+00  0.00000E+00  0.00000E+00  0.00000E+00    0.18807E+02  0.18986E+02 -0.37793E+02 -0.23309E+01  0.17868E+01  0.18351E+02      982.00
  0.79829E+00  0.65248E+02    0.46250E+00  0.46250E+00 -0.92500E+00  0.00000E+00  0.00000E+00  0.00000E+00    0.18858E+02  0.18981E+02 -0.37840E+02 -0.23180E+01  0.17795E+01  0.18349E+02      982.00
  0.82004E+00  0.65301E+02    0.47500E+00  0.47500E+00 -0.95000E+00  0.00000E+00  0.00000E+00  0.00000E+00    0.18908E+02  0.18976E+02 -0.37884E+02 -0.23057E+01  0.17725E+01  0.18346E+02      982.00
  0.84180E+00  0.65351E+02    0.48750E+00  0.48750E+00 -0.97500E+00  0.00000E+00  0.00000E+00  0.00000E+00    0.18956E+02  0.18969E+02 -0.37925E+02 -0.22942E+01  0.17658E+01  0.18343E+02      982.00
  0.86356E+00  0.65355E+02    0.50000E+00  0.50000E+00 -0.10000E+01  0.00000E+00  0.00000E+00  0.00000E+00    0.18983E+02  0.18953E+02 -0.37935E+02 -0.22752E+01  0.17557E+01  0.18336E+02      982.00
