          Evm          Svm            E11          E22          E33          E23          E13          E12         SDEV11       SDEV22       SDEV33       SDEV23       SDEV13       SDEV12      TEMP
  0.00000E+00  0.68208E+02    0.00000E+00  0.00000E+00  0.00000E+00  0.00000E+00  0.00000E+00  0.00000E+00    0.23274E+02  0.21698E+02 -0.44972E+02  0.69735E+00  0.21578E+01 -0.53064E+01      982.00
  0.24725E-01  0.67982E+02    0.12500E-01  0.12500E-01 -0.25000E-01  0.00000E+00  0.00000E+00  0.00000E+00    0.23151E+02  0.21709E+02 -0.44860E+02  0.72614E+00  0.21680E+01 -0.50431E+01      982.00
  0.49471E-01  0.67795E+02    0.25000E-01  0.25000E-01 -0.50000E-01  0.00000E+00  0.00000E+00  0.00000E+00    0.23057E+02  0.21734E+02 -0.44791E+02  0.73503E+00  0.21469E+01 -0.46656E+01      982.00
  0.74247E-01  0.67665E+02    0.37500E-01  0.37500E-01 -0.75000E-01  0.00000E+00  0.00000E+00  0.00000E+00    0.23001E+02  0.21770E+02 -0.44771E+02  0.76077E+00  0.21135E+01 -0.41786E+01      982.00
  0.99058E-01  0.67583E+02    0.50000E-01  0.50000E-01 -0.10000E+00  0.00000E+00  0.00000E+00  0.00000E+00    0.22970E+02  0.21805E+02 -0.44775E+02  0.83146E+00  0.20976E+01 -0.36638E+01      982.00
  0.12390E+00  0.67567E+02    0.62500E-01  0.62500E-01 -0.12500E+00  0.00000E+00  0.00000E+00  0.00000E+00    0.22964E+02  0.21842E+02 -0.44805E+02  0.96699E+00  0.21311E+01 -0.32121E+01      982.00
  0.14877E+00  0.67605E+02    0.75000E-01  0.75000E-01 -0.15000E+00  0.00000E+00  0.00000E+00  0.00000E+00    0.22972E+02  0.21881E+02 -0.44852E+02  0.11484E+01  0.22073E+01 -0.28598E+01      982.00
  0.17365E+00  0.67688E+02    0.87500E-01  0.87500E-01 -0.17500E+00  0.00000E+00  0.00000E+00  0.00000E+00    0.22991E+02  0.21922E+02 -0.44913E+02  0.13491E+01  0.23124E+01 -0.26216E+01      982.00
  0.19853E+00  0.67808E+02    0.10000E+00  0.10000E+00 -0.20000E+00  0.00000E+00  0.00000E+00  0.00000E+00    0.23017E+02  0.21970E+02 -0.44987E+02  0.15486E+01  0.24310E+01 -0.24894E+01      982.00
  0.22341E+00  0.67958E+02    0.11250E+00  0.11250E+00 -0.22500E+00  0.00000E+00  0.00000E+00  0.00000E+00    0.23040E+02  0.22032E+02 -0.45072E+02  0.17430E+01  0.25557E+01 -0.24474E+01      982.00
  0.24828E+00  0.68130E+02    0.12500E+00  0.12500E+00 -0.25000E+00  0.00000E+00  0.00000E+00  0.00000E+00    0.23059E+02  0.22106E+02 -0.45164E+02  0.19234E+01  0.26816E+01 -0.25013E+01      982.00
  0.27314E+00  0.68301E+02    0.13750E+00  0.13750E+00 -0.27500E+00  0.00000E+00  0.00000E+00  0.00000E+00    0.23079E+02  0.22179E+02 -0.45258E+02  0.20572E+01  0.27830E+01 -0.25714E+01      982.00
  0.29799E+00  0.68480E+02    0.15000E+00  0.15000E+00 -0.30000E+00  0.00000E+00  0.00000E+00  0.00000E+00    0.23087E+02  0.22265E+02 -0.45352E+02  0.21849E+01  0.28847E+01 -0.27001E+01      982.00
  0.32283E+00  0.68656E+02    0.16250E+00  0.16250E+00 -0.32500E+00  0.00000E+00  0.00000E+00  0.00000E+00    0.23083E+02  0.22360E+02 -0.45443E+02  0.22955E+01  0.29778E+01 -0.28574E+01      982.00
  0.34765E+00  0.68824E+02    0.17500E+00  0.17500E+00 -0.35000E+00  0.00000E+00  0.00000E+00  0.00000E+00    0.23065E+02  0.22462E+02 -0.45527E+02  0.23910E+01  0.30632E+01 -0.30345E+01      982.00
  0.37245E+00  0.68973E+02    0.18750E+00  0.18750E+00 -0.37500E+00  0.00000E+00  0.00000E+00  0.00000E+00    0.23035E+02  0.22564E+02 -0.45599E+02  0.24700E+01  0.31380E+01 -0.32085E+01      982.00
  0.39724E+00  0.69115E+02    0.20000E+00  0.20000E+00 -0.40000E+00  0.00000E+00  0.00000E+00  0.00000E+00    0.22991E+02  0.22674E+02 -0.45664E+02  0.25426E+01  0.32106E+01 -0.34046E+01      982.00
  0.42202E+00  0.69242E+02    0.21250E+00  0.21250E+00 -0.42500E+00  0.00000E+00  0.00000E+00  0.00000E+00    0.22931E+02  0.22787E+02 -0.45718E+02  0.26061E+01  0.32776E+01 -0.36023E+01      982.00
  0.44678E+00  0.69352E+02    0.22500E+00  0.22500E+00 -0.45000E+00  0.00000E+00  0.00000E+00  0.00000E+00    0.22857E+02  0.22904E+02 -0.45761E+02  0.26623E+01  0.33399E+01 -0.37977E+01      982.00
  0.47152E+00  0.69446E+02    0.23750E+00  0.23750E+00 -0.47500E+00  0.00000E+00  0.00000E+00  0.00000E+00    0.22770E+02  0.23023E+02 -0.45793E+02  0.27124E+01  0.33982E+01 -0.39875E+01      982.00
  0.49625E+00  0.69525E+02    0.25000E+00  0.25000E+00 -0.50000E+00  0.00000E+00  0.00000E+00  0.00000E+00    0.22670E+02  0.23146E+02 -0.45815E+02  0.27575E+01  0.34530E+01 -0.41695E+01      982.00
  0.52096E+00  0.69589E+02    0.26250E+00  0.26250E+00 -0.52500E+00  0.00000E+00  0.00000E+00  0.00000E+00    0.22556E+02  0.23271E+02 -0.45828E+02  0.27985E+01  0.35047E+01 -0.43419E+01      982.00
  0.54566E+00  0.69640E+02    0.27500E+00  0.27500E+00 -0.55000E+00  0.00000E+00  0.00000E+00  0.00000E+00    0.22431E+02  0.23401E+02 -0.45832E+02  0.28360E+01  0.35536E+01 -0.45036E+01      982.00
  0.57034E+00  0.69679E+02    0.28750E+00  0.28750E+00 -0.57500E+00  0.00000E+00  0.00000E+00  0.00000E+00    0.22295E+02  0.23534E+02 -0.45828E+02  0.28707E+01  0.35999E+01 -0.46539E+01      982.00
  0.59500E+00  0.69707E+02    0.30000E+00  0.30000E+00 -0.60000E+00  0.00000E+00  0.00000E+00  0.00000E+00    0.22147E+02  0.23671E+02 -0.45818E+02  0.29030E+01  0.36439E+01 -0.47924E+01      982.00
  0.61965E+00  0.69726E+02    0.31250E+00  0.31250E+00 -0.62500E+00  0.00000E+00  0.00000E+00  0.00000E+00    0.21990E+02  0.23812E+02 -0.45802E+02  0.29330E+01  0.36855E+01 -0.49190E+01      982.00
  0.64428E+00  0.69735E+02    0.32500E+00  0.32500E+00 -0.65000E+00  0.00000E+00  0.00000E+00  0.00000E+00    0.21823E+02  0.23957E+02 -0.45780E+02  0.29611E+01  0.37249E+01 -0.50339E+01      982.00
  0.66890E+00  0.69737E+02    0.33750E+00  0.33750E+00 -0.67500E+00  0.00000E+00  0.00000E+00  0.00000E+00    0.21648E+02  0.24107E+02 -0.45755E+02  0.29874E+01  0.37620E+01 -0.51374E+01      982.00
  0.69351E+00  0.69732E+02    0.35000E+00  0.35000E+00 -0.70000E+00  0.00000E+00  0.00000E+00  0.00000E+00    0.21465E+02  0.24260E+02 -0.45725E+02  0.30121E+01  0.37965E+01 -0.52296E+01      982.00
  0.71810E+00  0.69722E+02    0.36250E+00  0.36250E+00 -0.72500E+00  0.00000E+00  0.00000E+00  0.00000E+00    0.21274E+02  0.24418E+02 -0.45692E+02  0.30352E+01  0.38289E+01 -0.53114E+01      982.00
  0.74267E+00  0.69707E+02    0.37500E+00  0.37500E+00 -0.75000E+00  0.00000E+00  0.00000E+00  0.00000E+00    0.21078E+02  0.24579E+02 -0.45657E+02  0.30570E+01  0.38589E+01 -0.53830E+01      982.00
  0.76723E+00  0.69688E+02    0.38750E+00  0.38750E+00 -0.77500E+00  0.00000E+00  0.00000E+00  0.00000E+00    0.20877E+02  0.24743E+02 -0.45620E+02  0.30773E+01  0.38865E+01 -0.54450E+01      982.00
  0.79178E+00  0.69666E+02    0.40000E+00  0.40000E+00 -0.80000E+00  0.00000E+00  0.00000E+00  0.00000E+00    0.20671E+02  0.24910E+02 -0.45580E+02  0.30964E+01  0.39117E+01 -0.54979E+01      982.00
  0.81632E+00  0.69641E+02    0.41250E+00  0.41250E+00 -0.82500E+00  0.00000E+00  0.00000E+00  0.00000E+00    0.20461E+02  0.25079E+02 -0.45540E+02  0.31142E+01  0.39345E+01 -0.55421E+01      982.00
  0.84084E+00  0.69615E+02    0.42500E+00  0.42500E+00 -0.85000E+00  0.00000E+00  0.00000E+00  0.00000E+00    0.20249E+02  0.25249E+02 -0.45499E+02  0.31309E+01  0.39549E+01 -0.55783E+01      982.00
  0.86535E+00  0.69587E+02    0.43750E+00  0.43750E+00 -0.87500E+00  0.00000E+00  0.00000E+00  0.00000E+00    0.20036E+02  0.25421E+02 -0.45457E+02  0.31466E+01  0.39731E+01 -0.56069E+01      982.00
  0.88984E+00  0.69557E+02    0.45000E+00  0.45000E+00 -0.90000E+00  0.00000E+00  0.00000E+00  0.00000E+00    0.19821E+02  0.25593E+02 -0.45414E+02  0.31613E+01  0.39891E+01 -0.56284E+01      982.00
  0.91433E+00  0.69528E+02    0.46250E+00  0.46250E+00 -0.92500E+00  0.00000E+00  0.00000E+00  0.00000E+00    0.19607E+02  0.25765E+02 -0.45372E+02  0.31750E+01  0.40030E+01 -0.56432E+01      982.00
  0.93880E+00  0.69442E+02    0.47500E+00  0.47500E+00 -0.95000E+00  0.00000E+00  0.00000E+00  0.00000E+00    0.19396E+02  0.25900E+02 -0.45296E+02  0.31784E+01  0.40052E+01 -0.56474E+01      982.00
  0.96326E+00  0.69364E+02    0.48750E+00  0.48750E+00 -0.97500E+00  0.00000E+00  0.00000E+00  0.00000E+00    0.19184E+02  0.26042E+02 -0.45226E+02  0.31808E+01  0.40030E+01 -0.56424E+01      982.00
  0.98771E+00  0.69290E+02    0.50000E+00  0.50000E+00 -0.10000E+01  0.00000E+00  0.00000E+00  0.00000E+00    0.18976E+02  0.26183E+02 -0.45159E+02  0.31828E+01  0.39993E+01 -0.56328E+01      982.00
