          Evm          Svm            E11          E22          E33          E23          E13          E12         SDEV11       SDEV22       SDEV33       SDEV23       SDEV13       SDEV12      TEMP
  0.00000E+00  0.62135E+02    0.00000E+00  0.00000E+00  0.00000E+00  0.00000E+00  0.00000E+00  0.00000E+00    0.17480E+02  0.21690E+02 -0.39170E+02 -0.20145E+01  0.26949E+01  0.10976E+02      982.00
  0.23640E-01  0.62321E+02    0.12500E-01  0.12500E-01 -0.25000E-01  0.00000E+00  0.00000E+00  0.00000E+00    0.17306E+02  0.22006E+02 -0.39312E+02 -0.22805E+01  0.28799E+01  0.10795E+02      982.00
  0.47295E-01  0.62393E+02    0.25000E-01  0.25000E-01 -0.50000E-01  0.00000E+00  0.00000E+00  0.00000E+00    0.17121E+02  0.22280E+02 -0.39401E+02 -0.25210E+01  0.29737E+01  0.10557E+02      982.00
  0.70976E-01  0.62451E+02    0.37500E-01  0.37500E-01 -0.75000E-01  0.00000E+00  0.00000E+00  0.00000E+00    0.16938E+02  0.22547E+02 -0.39485E+02 -0.27616E+01  0.29553E+01  0.10321E+02      982.00
  0.94686E-01  0.62545E+02    0.50000E-01  0.50000E-01 -0.10000E+00  0.00000E+00  0.00000E+00  0.00000E+00    0.16760E+02  0.22825E+02 -0.39585E+02 -0.29937E+01  0.28572E+01  0.10120E+02      982.00
  0.11842E+00  0.62680E+02    0.62500E-01  0.62500E-01 -0.12500E+00  0.00000E+00  0.00000E+00  0.00000E+00    0.16593E+02  0.23107E+02 -0.39700E+02 -0.32000E+01  0.27185E+01  0.99646E+01      982.00
  0.14217E+00  0.62856E+02    0.75000E-01  0.75000E-01 -0.15000E+00  0.00000E+00  0.00000E+00  0.00000E+00    0.16430E+02  0.23400E+02 -0.39830E+02 -0.33819E+01  0.25743E+01  0.98440E+01      982.00
  0.16593E+00  0.63069E+02    0.87500E-01  0.87500E-01 -0.17500E+00  0.00000E+00  0.00000E+00  0.00000E+00    0.16287E+02  0.23687E+02 -0.39973E+02 -0.35352E+01  0.24379E+01  0.97675E+01      982.00
  0.18970E+00  0.63318E+02    0.10000E+00  0.10000E+00 -0.20000E+00  0.00000E+00  0.00000E+00  0.00000E+00    0.16159E+02  0.23969E+02 -0.40128E+02 -0.36657E+01  0.23192E+01  0.97264E+01      982.00
  0.21347E+00  0.63585E+02    0.11250E+00  0.11250E+00 -0.22500E+00  0.00000E+00  0.00000E+00  0.00000E+00    0.16042E+02  0.24247E+02 -0.40289E+02 -0.37753E+01  0.22222E+01  0.97074E+01      982.00
  0.23723E+00  0.63888E+02    0.12500E+00  0.12500E+00 -0.25000E+00  0.00000E+00  0.00000E+00  0.00000E+00    0.15952E+02  0.24513E+02 -0.40464E+02 -0.38706E+01  0.21443E+01  0.97270E+01      982.00
  0.26098E+00  0.64206E+02    0.13750E+00  0.13750E+00 -0.27500E+00  0.00000E+00  0.00000E+00  0.00000E+00    0.15878E+02  0.24767E+02 -0.40645E+02 -0.39520E+01  0.20850E+01  0.97673E+01      982.00
  0.28472E+00  0.64520E+02    0.15000E+00  0.15000E+00 -0.30000E+00  0.00000E+00  0.00000E+00  0.00000E+00    0.15810E+02  0.25011E+02 -0.40821E+02 -0.40182E+01  0.20429E+01  0.98166E+01      982.00
  0.30844E+00  0.64852E+02    0.16250E+00  0.16250E+00 -0.32500E+00  0.00000E+00  0.00000E+00  0.00000E+00    0.15765E+02  0.25240E+02 -0.41005E+02 -0.40760E+01  0.20142E+01  0.98885E+01      982.00
  0.33215E+00  0.65183E+02    0.17500E+00  0.17500E+00 -0.35000E+00  0.00000E+00  0.00000E+00  0.00000E+00    0.15731E+02  0.25455E+02 -0.41186E+02 -0.41227E+01  0.19975E+01  0.99704E+01      982.00
  0.35585E+00  0.65505E+02    0.18750E+00  0.18750E+00 -0.37500E+00  0.00000E+00  0.00000E+00  0.00000E+00    0.15707E+02  0.25655E+02 -0.41362E+02 -0.41579E+01  0.19908E+01  0.10059E+02      982.00
  0.37953E+00  0.65805E+02    0.20000E+00  0.20000E+00 -0.40000E+00  0.00000E+00  0.00000E+00  0.00000E+00    0.15682E+02  0.25842E+02 -0.41524E+02 -0.41780E+01  0.19930E+01  0.10149E+02      982.00
  0.40319E+00  0.66101E+02    0.21250E+00  0.21250E+00 -0.42500E+00  0.00000E+00  0.00000E+00  0.00000E+00    0.15674E+02  0.26011E+02 -0.41684E+02 -0.41888E+01  0.20019E+01  0.10247E+02      982.00
  0.42684E+00  0.66374E+02    0.22500E+00  0.22500E+00 -0.45000E+00  0.00000E+00  0.00000E+00  0.00000E+00    0.15677E+02  0.26157E+02 -0.41833E+02 -0.41845E+01  0.20135E+01  0.10342E+02      982.00
  0.45047E+00  0.66616E+02    0.23750E+00  0.23750E+00 -0.47500E+00  0.00000E+00  0.00000E+00  0.00000E+00    0.15671E+02  0.26290E+02 -0.41961E+02 -0.41665E+01  0.20340E+01  0.10440E+02      982.00
  0.47410E+00  0.66862E+02    0.25000E+00  0.25000E+00 -0.50000E+00  0.00000E+00  0.00000E+00  0.00000E+00    0.15685E+02  0.26409E+02 -0.42094E+02 -0.41411E+01  0.20573E+01  0.10542E+02      982.00
  0.49770E+00  0.67089E+02    0.26250E+00  0.26250E+00 -0.52500E+00  0.00000E+00  0.00000E+00  0.00000E+00    0.15706E+02  0.26511E+02 -0.42217E+02 -0.41049E+01  0.20832E+01  0.10642E+02      982.00
  0.52130E+00  0.67293E+02    0.27500E+00  0.27500E+00 -0.55000E+00  0.00000E+00  0.00000E+00  0.00000E+00    0.15733E+02  0.26595E+02 -0.42328E+02 -0.40595E+01  0.21108E+01  0.10737E+02      982.00
  0.54489E+00  0.67487E+02    0.28750E+00  0.28750E+00 -0.57500E+00  0.00000E+00  0.00000E+00  0.00000E+00    0.15768E+02  0.26666E+02 -0.42434E+02 -0.40063E+01  0.21396E+01  0.10833E+02      982.00
  0.56847E+00  0.67664E+02    0.30000E+00  0.30000E+00 -0.60000E+00  0.00000E+00  0.00000E+00  0.00000E+00    0.15808E+02  0.26724E+02 -0.42532E+02 -0.39471E+01  0.21683E+01  0.10924E+02      982.00
  0.59204E+00  0.67825E+02    0.31250E+00  0.31250E+00 -0.62500E+00  0.00000E+00  0.00000E+00  0.00000E+00    0.15854E+02  0.26768E+02 -0.42623E+02 -0.38834E+01  0.21961E+01  0.11009E+02      982.00
  0.61561E+00  0.67976E+02    0.32500E+00  0.32500E+00 -0.65000E+00  0.00000E+00  0.00000E+00  0.00000E+00    0.15905E+02  0.26803E+02 -0.42709E+02 -0.38175E+01  0.22230E+01  0.11090E+02      982.00
  0.63917E+00  0.68115E+02    0.33750E+00  0.33750E+00 -0.67500E+00  0.00000E+00  0.00000E+00  0.00000E+00    0.15961E+02  0.26829E+02 -0.42790E+02 -0.37505E+01  0.22481E+01  0.11166E+02      982.00
  0.66272E+00  0.68244E+02    0.35000E+00  0.35000E+00 -0.70000E+00  0.00000E+00  0.00000E+00  0.00000E+00    0.16020E+02  0.26847E+02 -0.42867E+02 -0.36835E+01  0.22711E+01  0.11236E+02      982.00
  0.68628E+00  0.68364E+02    0.36250E+00  0.36250E+00 -0.72500E+00  0.00000E+00  0.00000E+00  0.00000E+00    0.16081E+02  0.26858E+02 -0.42939E+02 -0.36174E+01  0.22918E+01  0.11299E+02      982.00
  0.70983E+00  0.68474E+02    0.37500E+00  0.37500E+00 -0.75000E+00  0.00000E+00  0.00000E+00  0.00000E+00    0.16144E+02  0.26863E+02 -0.43008E+02 -0.35529E+01  0.23102E+01  0.11357E+02      982.00
  0.73339E+00  0.68577E+02    0.38750E+00  0.38750E+00 -0.77500E+00  0.00000E+00  0.00000E+00  0.00000E+00    0.16209E+02  0.26864E+02 -0.43073E+02 -0.34904E+01  0.23262E+01  0.11408E+02      982.00
  0.75694E+00  0.68672E+02    0.40000E+00  0.40000E+00 -0.80000E+00  0.00000E+00  0.00000E+00  0.00000E+00    0.16274E+02  0.26861E+02 -0.43135E+02 -0.34301E+01  0.23401E+01  0.11455E+02      982.00
  0.78050E+00  0.68760E+02    0.41250E+00  0.41250E+00 -0.82500E+00  0.00000E+00  0.00000E+00  0.00000E+00    0.16339E+02  0.26854E+02 -0.43194E+02 -0.33723E+01  0.23518E+01  0.11495E+02      982.00
  0.80405E+00  0.68841E+02    0.42500E+00  0.42500E+00 -0.85000E+00  0.00000E+00  0.00000E+00  0.00000E+00    0.16404E+02  0.26846E+02 -0.43250E+02 -0.33169E+01  0.23617E+01  0.11532E+02      982.00
  0.82761E+00  0.68917E+02    0.43750E+00  0.43750E+00 -0.87500E+00  0.00000E+00  0.00000E+00  0.00000E+00    0.16468E+02  0.26835E+02 -0.43303E+02 -0.32639E+01  0.23699E+01  0.11563E+02      982.00
  0.85117E+00  0.68988E+02    0.45000E+00  0.45000E+00 -0.90000E+00  0.00000E+00  0.00000E+00  0.00000E+00    0.16530E+02  0.26823E+02 -0.43353E+02 -0.32134E+01  0.23766E+01  0.11591E+02      982.00
  0.87474E+00  0.69053E+02    0.46250E+00  0.46250E+00 -0.92500E+00  0.00000E+00  0.00000E+00  0.00000E+00    0.16591E+02  0.26810E+02 -0.43401E+02 -0.31651E+01  0.23821E+01  0.11615E+02      982.00
  0.89831E+00  0.69114E+02    0.47500E+00  0.47500E+00 -0.95000E+00  0.00000E+00  0.00000E+00  0.00000E+00    0.16650E+02  0.26796E+02 -0.43447E+02 -0.31190E+01  0.23864E+01  0.11635E+02      982.00
  0.92188E+00  0.69171E+02    0.48750E+00  0.48750E+00 -0.97500E+00  0.00000E+00  0.00000E+00  0.00000E+00    0.16708E+02  0.26783E+02 -0.43490E+02 -0.30750E+01  0.23898E+01  0.11653E+02      982.00
  0.94546E+00  0.69224E+02    0.50000E+00  0.50000E+00 -0.10000E+01  0.00000E+00  0.00000E+00  0.00000E+00    0.16763E+02  0.26769E+02 -0.43531E+02 -0.30329E+01  0.23924E+01  0.11668E+02      982.00
