          Evm          Svm            E11          E22          E33          E23          E13          E12         SDEV11       SDEV22       SDEV33       SDEV23       SDEV13       SDEV12      TEMP
  0.00000E+00  0.53444E+02    0.00000E+00  0.00000E+00  0.00000E+00  0.00000E+00  0.00000E+00  0.00000E+00    0.11656E+02  0.21986E+02 -0.33642E+02 -0.49272E+01  0.88117E+00 -0.71777E+01      982.00
  0.23605E-01  0.53865E+02    0.12500E-01  0.12500E-01 -0.25000E-01  0.00000E+00  0.00000E+00  0.00000E+00    0.12136E+02  0.21661E+02 -0.33798E+02 -0.50850E+01 -0.10174E+00 -0.78664E+01      982.00
  0.47135E-01  0.54291E+02    0.25000E-01  0.25000E-01 -0.50000E-01  0.00000E+00  0.00000E+00  0.00000E+00    0.12774E+02  0.21189E+02 -0.33963E+02 -0.51341E+01 -0.10980E+01 -0.84921E+01      982.00
  0.70594E-01  0.54687E+02    0.37500E-01  0.37500E-01 -0.75000E-01  0.00000E+00  0.00000E+00  0.00000E+00    0.13415E+02  0.20689E+02 -0.34104E+02 -0.51638E+01 -0.19588E+01 -0.89920E+01      982.00
  0.93980E-01  0.55070E+02    0.50000E-01  0.50000E-01 -0.10000E+00  0.00000E+00  0.00000E+00  0.00000E+00    0.13945E+02  0.20298E+02 -0.34243E+02 -0.52438E+01 -0.25502E+01 -0.93460E+01      982.00
  0.11730E+00  0.55452E+02    0.62500E-01  0.62500E-01 -0.12500E+00  0.00000E+00  0.00000E+00  0.00000E+00    0.14363E+02  0.20039E+02 -0.34402E+02 -0.53564E+01 -0.29148E+01 -0.95979E+01      982.00
  0.14056E+00  0.55840E+02    0.75000E-01  0.75000E-01 -0.15000E+00  0.00000E+00  0.00000E+00  0.00000E+00    0.14694E+02  0.19890E+02 -0.34584E+02 -0.54683E+01 -0.31371E+01 -0.97889E+01      982.00
  0.16379E+00  0.56234E+02    0.87500E-01  0.87500E-01 -0.17500E+00  0.00000E+00  0.00000E+00  0.00000E+00    0.14952E+02  0.19835E+02 -0.34787E+02 -0.55639E+01 -0.32686E+01 -0.99420E+01      982.00
  0.18699E+00  0.56638E+02    0.10000E+00  0.10000E+00 -0.20000E+00  0.00000E+00  0.00000E+00  0.00000E+00    0.15166E+02  0.19844E+02 -0.35010E+02 -0.56345E+01 -0.33588E+01 -0.10076E+02      982.00
  0.21017E+00  0.57049E+02    0.11250E+00  0.11250E+00 -0.22500E+00  0.00000E+00  0.00000E+00  0.00000E+00    0.15341E+02  0.19905E+02 -0.35246E+02 -0.56832E+01 -0.34223E+01 -0.10195E+02      982.00
  0.23333E+00  0.57476E+02    0.12500E+00  0.12500E+00 -0.25000E+00  0.00000E+00  0.00000E+00  0.00000E+00    0.15485E+02  0.20013E+02 -0.35498E+02 -0.57111E+01 -0.34691E+01 -0.10310E+02      982.00
  0.25650E+00  0.57925E+02    0.13750E+00  0.13750E+00 -0.27500E+00  0.00000E+00  0.00000E+00  0.00000E+00    0.15609E+02  0.20159E+02 -0.35768E+02 -0.57213E+01 -0.35131E+01 -0.10425E+02      982.00
  0.27965E+00  0.58392E+02    0.15000E+00  0.15000E+00 -0.30000E+00  0.00000E+00  0.00000E+00  0.00000E+00    0.15718E+02  0.20337E+02 -0.36054E+02 -0.57125E+01 -0.35553E+01 -0.10536E+02      982.00
  0.30281E+00  0.58847E+02    0.16250E+00  0.16250E+00 -0.32500E+00  0.00000E+00  0.00000E+00  0.00000E+00    0.15815E+02  0.20526E+02 -0.36342E+02 -0.56865E+01 -0.35960E+01 -0.10629E+02      982.00
  0.32596E+00  0.59312E+02    0.17500E+00  0.17500E+00 -0.35000E+00  0.00000E+00  0.00000E+00  0.00000E+00    0.15909E+02  0.20729E+02 -0.36638E+02 -0.56511E+01 -0.36426E+01 -0.10718E+02      982.00
  0.34913E+00  0.59775E+02    0.18750E+00  0.18750E+00 -0.37500E+00  0.00000E+00  0.00000E+00  0.00000E+00    0.15996E+02  0.20941E+02 -0.36937E+02 -0.56076E+01 -0.36928E+01 -0.10798E+02      982.00
  0.37230E+00  0.60228E+02    0.20000E+00  0.20000E+00 -0.40000E+00  0.00000E+00  0.00000E+00  0.00000E+00    0.16076E+02  0.21157E+02 -0.37233E+02 -0.55559E+01 -0.37443E+01 -0.10866E+02      982.00
  0.39548E+00  0.60687E+02    0.21250E+00  0.21250E+00 -0.42500E+00  0.00000E+00  0.00000E+00  0.00000E+00    0.16153E+02  0.21381E+02 -0.37534E+02 -0.55017E+01 -0.38023E+01 -0.10929E+02      982.00
  0.41868E+00  0.61140E+02    0.22500E+00  0.22500E+00 -0.45000E+00  0.00000E+00  0.00000E+00  0.00000E+00    0.16226E+02  0.21608E+02 -0.37834E+02 -0.54439E+01 -0.38633E+01 -0.10983E+02      982.00
  0.44188E+00  0.61584E+02    0.23750E+00  0.23750E+00 -0.47500E+00  0.00000E+00  0.00000E+00  0.00000E+00    0.16296E+02  0.21836E+02 -0.38132E+02 -0.53830E+01 -0.39264E+01 -0.11028E+02      982.00
  0.46510E+00  0.62001E+02    0.25000E+00  0.25000E+00 -0.50000E+00  0.00000E+00  0.00000E+00  0.00000E+00    0.16364E+02  0.22049E+02 -0.38414E+02 -0.53283E+01 -0.39808E+01 -0.11061E+02      982.00
  0.48834E+00  0.62424E+02    0.26250E+00  0.26250E+00 -0.52500E+00  0.00000E+00  0.00000E+00  0.00000E+00    0.16425E+02  0.22277E+02 -0.38702E+02 -0.52639E+01 -0.40442E+01 -0.11086E+02      982.00
  0.51158E+00  0.62834E+02    0.27500E+00  0.27500E+00 -0.55000E+00  0.00000E+00  0.00000E+00  0.00000E+00    0.16483E+02  0.22502E+02 -0.38985E+02 -0.51969E+01 -0.41077E+01 -0.11101E+02      982.00
  0.53485E+00  0.63229E+02    0.28750E+00  0.28750E+00 -0.57500E+00  0.00000E+00  0.00000E+00  0.00000E+00    0.16536E+02  0.22724E+02 -0.39260E+02 -0.51281E+01 -0.41705E+01 -0.11107E+02      982.00
  0.55814E+00  0.63608E+02    0.30000E+00  0.30000E+00 -0.60000E+00  0.00000E+00  0.00000E+00  0.00000E+00    0.16586E+02  0.22941E+02 -0.39528E+02 -0.50575E+01 -0.42318E+01 -0.11102E+02      982.00
  0.58144E+00  0.63968E+02    0.31250E+00  0.31250E+00 -0.62500E+00  0.00000E+00  0.00000E+00  0.00000E+00    0.16633E+02  0.23151E+02 -0.39784E+02 -0.49931E+01 -0.42816E+01 -0.11092E+02      982.00
  0.60476E+00  0.64317E+02    0.32500E+00  0.32500E+00 -0.65000E+00  0.00000E+00  0.00000E+00  0.00000E+00    0.16675E+02  0.23360E+02 -0.40035E+02 -0.49206E+01 -0.43383E+01 -0.11071E+02      982.00
  0.62810E+00  0.64638E+02    0.33750E+00  0.33750E+00 -0.67500E+00  0.00000E+00  0.00000E+00  0.00000E+00    0.16714E+02  0.23556E+02 -0.40270E+02 -0.48485E+01 -0.43873E+01 -0.11043E+02      982.00
  0.65147E+00  0.64954E+02    0.35000E+00  0.35000E+00 -0.70000E+00  0.00000E+00  0.00000E+00  0.00000E+00    0.16749E+02  0.23755E+02 -0.40504E+02 -0.47739E+01 -0.44396E+01 -0.11007E+02      982.00
  0.67485E+00  0.65266E+02    0.36250E+00  0.36250E+00 -0.72500E+00  0.00000E+00  0.00000E+00  0.00000E+00    0.16777E+02  0.23959E+02 -0.40736E+02 -0.47012E+01 -0.44837E+01 -0.10963E+02      982.00
  0.69826E+00  0.65550E+02    0.37500E+00  0.37500E+00 -0.75000E+00  0.00000E+00  0.00000E+00  0.00000E+00    0.16803E+02  0.24148E+02 -0.40951E+02 -0.46259E+01 -0.45306E+01 -0.10913E+02      982.00
  0.72168E+00  0.65818E+02    0.38750E+00  0.38750E+00 -0.77500E+00  0.00000E+00  0.00000E+00  0.00000E+00    0.16825E+02  0.24331E+02 -0.41156E+02 -0.45503E+01 -0.45750E+01 -0.10858E+02      982.00
  0.74513E+00  0.66071E+02    0.40000E+00  0.40000E+00 -0.80000E+00  0.00000E+00  0.00000E+00  0.00000E+00    0.16843E+02  0.24509E+02 -0.41352E+02 -0.44747E+01 -0.46168E+01 -0.10798E+02      982.00
  0.76860E+00  0.66310E+02    0.41250E+00  0.41250E+00 -0.82500E+00  0.00000E+00  0.00000E+00  0.00000E+00    0.16858E+02  0.24682E+02 -0.41540E+02 -0.43992E+01 -0.46560E+01 -0.10733E+02      982.00
  0.79210E+00  0.66535E+02    0.42500E+00  0.42500E+00 -0.85000E+00  0.00000E+00  0.00000E+00  0.00000E+00    0.16868E+02  0.24850E+02 -0.41718E+02 -0.43242E+01 -0.46928E+01 -0.10663E+02      982.00
  0.81561E+00  0.66746E+02    0.43750E+00  0.43750E+00 -0.87500E+00  0.00000E+00  0.00000E+00  0.00000E+00    0.16874E+02  0.25013E+02 -0.41887E+02 -0.42497E+01 -0.47272E+01 -0.10590E+02      982.00
  0.83914E+00  0.66945E+02    0.45000E+00  0.45000E+00 -0.90000E+00  0.00000E+00  0.00000E+00  0.00000E+00    0.16877E+02  0.25172E+02 -0.42048E+02 -0.41759E+01 -0.47594E+01 -0.10514E+02      982.00
  0.86270E+00  0.67132E+02    0.46250E+00  0.46250E+00 -0.92500E+00  0.00000E+00  0.00000E+00  0.00000E+00    0.16875E+02  0.25326E+02 -0.42201E+02 -0.41030E+01 -0.47895E+01 -0.10434E+02      982.00
  0.88627E+00  0.67306E+02    0.47500E+00  0.47500E+00 -0.95000E+00  0.00000E+00  0.00000E+00  0.00000E+00    0.16869E+02  0.25477E+02 -0.42346E+02 -0.40311E+01 -0.48176E+01 -0.10351E+02      982.00
  0.90986E+00  0.67406E+02    0.48750E+00  0.48750E+00 -0.97500E+00  0.00000E+00  0.00000E+00  0.00000E+00    0.16852E+02  0.25598E+02 -0.42451E+02 -0.39435E+01 -0.48182E+01 -0.10252E+02      982.00
  0.93348E+00  0.67501E+02    0.50000E+00  0.50000E+00 -0.10000E+01  0.00000E+00  0.00000E+00  0.00000E+00    0.16834E+02  0.25715E+02 -0.42549E+02 -0.38596E+01 -0.48218E+01 -0.10154E+02      982.00
