          Evm          Svm            E11          E22          E33          E23          E13          E12         SDEV11       SDEV22       SDEV33       SDEV23       SDEV13       SDEV12      TEMP
  0.00000E+00  0.63237E+02    0.00000E+00  0.00000E+00  0.00000E+00  0.00000E+00  0.00000E+00  0.00000E+00    0.27646E+02  0.12453E+02 -0.40099E+02 -0.39148E+01  0.30020E+01 -0.67089E+01      982.00
  0.23779E-01  0.63237E+02    0.12500E-01  0.12500E-01 -0.25000E-01  0.00000E+00  0.00000E+00  0.00000E+00    0.27649E+02  0.12436E+02 -0.40085E+02 -0.39028E+01  0.30467E+01 -0.67442E+01      982.00
  0.47549E-01  0.63265E+02    0.25000E-01  0.25000E-01 -0.50000E-01  0.00000E+00  0.00000E+00  0.00000E+00    0.27662E+02  0.12424E+02 -0.40086E+02 -0.39150E+01  0.30748E+01 -0.67937E+01      982.00
  0.71310E-01  0.63391E+02    0.37500E-01  0.37500E-01 -0.75000E-01  0.00000E+00  0.00000E+00  0.00000E+00    0.27719E+02  0.12432E+02 -0.40151E+02 -0.39390E+01  0.30817E+01 -0.68509E+01      982.00
  0.95062E-01  0.63618E+02    0.50000E-01  0.50000E-01 -0.10000E+00  0.00000E+00  0.00000E+00  0.00000E+00    0.27821E+02  0.12455E+02 -0.40277E+02 -0.39904E+01  0.30669E+01 -0.69338E+01      982.00
  0.11880E+00  0.63914E+02    0.62500E-01  0.62500E-01 -0.12500E+00  0.00000E+00  0.00000E+00  0.00000E+00    0.27958E+02  0.12493E+02 -0.40451E+02 -0.40431E+01  0.30298E+01 -0.70073E+01      982.00
  0.14254E+00  0.64309E+02    0.75000E-01  0.75000E-01 -0.15000E+00  0.00000E+00  0.00000E+00  0.00000E+00    0.28135E+02  0.12550E+02 -0.40685E+02 -0.41338E+01  0.29642E+01 -0.71054E+01      982.00
  0.16626E+00  0.64726E+02    0.87500E-01  0.87500E-01 -0.17500E+00  0.00000E+00  0.00000E+00  0.00000E+00    0.28330E+02  0.12614E+02 -0.40944E+02 -0.42001E+01  0.28887E+01 -0.71740E+01      982.00
  0.18998E+00  0.65168E+02    0.10000E+00  0.10000E+00 -0.20000E+00  0.00000E+00  0.00000E+00  0.00000E+00    0.28535E+02  0.12684E+02 -0.41220E+02 -0.42767E+01  0.27969E+01 -0.72381E+01      982.00
  0.21370E+00  0.65631E+02    0.11250E+00  0.11250E+00 -0.22500E+00  0.00000E+00  0.00000E+00  0.00000E+00    0.28753E+02  0.12761E+02 -0.41514E+02 -0.43407E+01  0.27029E+01 -0.72913E+01      982.00
  0.23742E+00  0.66088E+02    0.12500E+00  0.12500E+00 -0.25000E+00  0.00000E+00  0.00000E+00  0.00000E+00    0.28966E+02  0.12844E+02 -0.41810E+02 -0.44044E+01  0.25994E+01 -0.73294E+01      982.00
  0.26115E+00  0.66538E+02    0.13750E+00  0.13750E+00 -0.27500E+00  0.00000E+00  0.00000E+00  0.00000E+00    0.29174E+02  0.12931E+02 -0.42105E+02 -0.44597E+01  0.24958E+01 -0.73532E+01      982.00
  0.28488E+00  0.66941E+02    0.15000E+00  0.15000E+00 -0.30000E+00  0.00000E+00  0.00000E+00  0.00000E+00    0.29358E+02  0.13018E+02 -0.42376E+02 -0.45062E+01  0.23926E+01 -0.73565E+01      982.00
  0.30862E+00  0.67342E+02    0.16250E+00  0.16250E+00 -0.32500E+00  0.00000E+00  0.00000E+00  0.00000E+00    0.29543E+02  0.13105E+02 -0.42648E+02 -0.45427E+01  0.22944E+01 -0.73550E+01      982.00
  0.33236E+00  0.67722E+02    0.17500E+00  0.17500E+00 -0.35000E+00  0.00000E+00  0.00000E+00  0.00000E+00    0.29717E+02  0.13191E+02 -0.42908E+02 -0.45702E+01  0.22010E+01 -0.73437E+01      982.00
  0.35612E+00  0.68073E+02    0.18750E+00  0.18750E+00 -0.37500E+00  0.00000E+00  0.00000E+00  0.00000E+00    0.29878E+02  0.13274E+02 -0.43152E+02 -0.45883E+01  0.21146E+01 -0.73234E+01      982.00
  0.37990E+00  0.68395E+02    0.20000E+00  0.20000E+00 -0.40000E+00  0.00000E+00  0.00000E+00  0.00000E+00    0.30024E+02  0.13356E+02 -0.43379E+02 -0.45985E+01  0.20348E+01 -0.72945E+01      982.00
  0.40368E+00  0.68695E+02    0.21250E+00  0.21250E+00 -0.42500E+00  0.00000E+00  0.00000E+00  0.00000E+00    0.30160E+02  0.13434E+02 -0.43594E+02 -0.46020E+01  0.19614E+01 -0.72600E+01      982.00
  0.42748E+00  0.68967E+02    0.22500E+00  0.22500E+00 -0.45000E+00  0.00000E+00  0.00000E+00  0.00000E+00    0.30282E+02  0.13510E+02 -0.43792E+02 -0.46001E+01  0.18942E+01 -0.72190E+01      982.00
  0.45129E+00  0.69214E+02    0.23750E+00  0.23750E+00 -0.47500E+00  0.00000E+00  0.00000E+00  0.00000E+00    0.30392E+02  0.13582E+02 -0.43974E+02 -0.45931E+01  0.18328E+01 -0.71747E+01      982.00
  0.47511E+00  0.69439E+02    0.25000E+00  0.25000E+00 -0.50000E+00  0.00000E+00  0.00000E+00  0.00000E+00    0.30493E+02  0.13652E+02 -0.44144E+02 -0.45824E+01  0.17663E+01 -0.71184E+01      982.00
  0.49895E+00  0.69654E+02    0.26250E+00  0.26250E+00 -0.52500E+00  0.00000E+00  0.00000E+00  0.00000E+00    0.30586E+02  0.13721E+02 -0.44307E+02 -0.45679E+01  0.17147E+01 -0.70672E+01      982.00
  0.52281E+00  0.69840E+02    0.27500E+00  0.27500E+00 -0.55000E+00  0.00000E+00  0.00000E+00  0.00000E+00    0.30666E+02  0.13785E+02 -0.44452E+02 -0.45488E+01  0.16683E+01 -0.70144E+01      982.00
  0.54668E+00  0.70008E+02    0.28750E+00  0.28750E+00 -0.57500E+00  0.00000E+00  0.00000E+00  0.00000E+00    0.30739E+02  0.13845E+02 -0.44584E+02 -0.45278E+01  0.16251E+01 -0.69587E+01      982.00
  0.57056E+00  0.70168E+02    0.30000E+00  0.30000E+00 -0.60000E+00  0.00000E+00  0.00000E+00  0.00000E+00    0.30807E+02  0.13904E+02 -0.44711E+02 -0.45050E+01  0.15862E+01 -0.69017E+01      982.00
  0.59445E+00  0.70301E+02    0.31250E+00  0.31250E+00 -0.62500E+00  0.00000E+00  0.00000E+00  0.00000E+00    0.30861E+02  0.13958E+02 -0.44819E+02 -0.44813E+01  0.15542E+01 -0.68512E+01      982.00
  0.61836E+00  0.70429E+02    0.32500E+00  0.32500E+00 -0.65000E+00  0.00000E+00  0.00000E+00  0.00000E+00    0.30914E+02  0.14010E+02 -0.44924E+02 -0.44559E+01  0.15208E+01 -0.67934E+01      982.00
  0.64228E+00  0.70540E+02    0.33750E+00  0.33750E+00 -0.67500E+00  0.00000E+00  0.00000E+00  0.00000E+00    0.30965E+02  0.14054E+02 -0.45020E+02 -0.44259E+01  0.14768E+01 -0.67295E+01      982.00
  0.66621E+00  0.70659E+02    0.35000E+00  0.35000E+00 -0.70000E+00  0.00000E+00  0.00000E+00  0.00000E+00    0.31009E+02  0.14110E+02 -0.45119E+02 -0.44009E+01  0.14592E+01 -0.66756E+01      982.00
  0.69016E+00  0.70757E+02    0.36250E+00  0.36250E+00 -0.72500E+00  0.00000E+00  0.00000E+00  0.00000E+00    0.31049E+02  0.14155E+02 -0.45204E+02 -0.43724E+01  0.14321E+01 -0.66174E+01      982.00
  0.71412E+00  0.70836E+02    0.37500E+00  0.37500E+00 -0.75000E+00  0.00000E+00  0.00000E+00  0.00000E+00    0.31086E+02  0.14190E+02 -0.45276E+02 -0.43387E+01  0.13940E+01 -0.65557E+01      982.00
  0.73808E+00  0.70916E+02    0.38750E+00  0.38750E+00 -0.77500E+00  0.00000E+00  0.00000E+00  0.00000E+00    0.31118E+02  0.14231E+02 -0.45350E+02 -0.43092E+01  0.13679E+01 -0.64958E+01      982.00
  0.76206E+00  0.70994E+02    0.40000E+00  0.40000E+00 -0.80000E+00  0.00000E+00  0.00000E+00  0.00000E+00    0.31150E+02  0.14270E+02 -0.45420E+02 -0.42785E+01  0.13434E+01 -0.64384E+01      982.00
  0.78606E+00  0.71072E+02    0.41250E+00  0.41250E+00 -0.82500E+00  0.00000E+00  0.00000E+00  0.00000E+00    0.31177E+02  0.14314E+02 -0.45491E+02 -0.42538E+01  0.13311E+01 -0.63838E+01      982.00
  0.81006E+00  0.71124E+02    0.42500E+00  0.42500E+00 -0.85000E+00  0.00000E+00  0.00000E+00  0.00000E+00    0.31203E+02  0.14340E+02 -0.45543E+02 -0.42165E+01  0.12981E+01 -0.63256E+01      982.00
  0.83407E+00  0.71180E+02    0.43750E+00  0.43750E+00 -0.87500E+00  0.00000E+00  0.00000E+00  0.00000E+00    0.31222E+02  0.14376E+02 -0.45598E+02 -0.41917E+01  0.12847E+01 -0.62702E+01      982.00
  0.85809E+00  0.71229E+02    0.45000E+00  0.45000E+00 -0.90000E+00  0.00000E+00  0.00000E+00  0.00000E+00    0.31242E+02  0.14406E+02 -0.45648E+02 -0.41597E+01  0.12620E+01 -0.62142E+01      982.00
  0.88213E+00  0.71221E+02    0.46250E+00  0.46250E+00 -0.92500E+00  0.00000E+00  0.00000E+00  0.00000E+00    0.31237E+02  0.14422E+02 -0.45659E+02 -0.41249E+01  0.12601E+01 -0.61605E+01      982.00
  0.90617E+00  0.71220E+02    0.47500E+00  0.47500E+00 -0.95000E+00  0.00000E+00  0.00000E+00  0.00000E+00    0.31230E+02  0.14450E+02 -0.45680E+02 -0.40886E+01  0.12501E+01 -0.60909E+01      982.00
  0.93022E+00  0.71205E+02    0.48750E+00  0.48750E+00 -0.97500E+00  0.00000E+00  0.00000E+00  0.00000E+00    0.31224E+02  0.14459E+02 -0.45683E+02 -0.40574E+01  0.12361E+01 -0.60456E+01      982.00
  0.95428E+00  0.71196E+02    0.50000E+00  0.50000E+00 -0.10000E+01  0.00000E+00  0.00000E+00  0.00000E+00    0.31218E+02  0.14479E+02 -0.45697E+02 -0.40184E+01  0.12182E+01 -0.59793E+01      982.00
