          Evm          Svm            E11          E22          E33          E23          E13          E12         SDEV11       SDEV22       SDEV33       SDEV23       SDEV13       SDEV12      TEMP
  0.00000E+00  0.59509E+02    0.00000E+00  0.00000E+00  0.00000E+00  0.00000E+00  0.00000E+00  0.00000E+00    0.21289E+02  0.12985E+02 -0.34275E+02  0.19313E+01 -0.17592E+01  0.16593E+02      982.00
  0.21598E-01  0.59768E+02    0.12500E-01  0.12500E-01 -0.25000E-01  0.00000E+00  0.00000E+00  0.00000E+00    0.21493E+02  0.12953E+02 -0.34446E+02  0.24756E+01 -0.22173E+01  0.16479E+02      982.00
  0.43211E-01  0.60039E+02    0.25000E-01  0.25000E-01 -0.50000E-01  0.00000E+00  0.00000E+00  0.00000E+00    0.21703E+02  0.12940E+02 -0.34644E+02  0.29672E+01 -0.26422E+01  0.16323E+02      982.00
  0.64849E-01  0.60293E+02    0.37500E-01  0.37500E-01 -0.75000E-01  0.00000E+00  0.00000E+00  0.00000E+00    0.21947E+02  0.12910E+02 -0.34857E+02  0.34317E+01 -0.30605E+01  0.16091E+02      982.00
  0.86529E-01  0.60516E+02    0.50000E-01  0.50000E-01 -0.10000E+00  0.00000E+00  0.00000E+00  0.00000E+00    0.22213E+02  0.12865E+02 -0.35077E+02  0.38457E+01 -0.34574E+01  0.15790E+02      982.00
  0.10827E+00  0.60724E+02    0.62500E-01  0.62500E-01 -0.12500E+00  0.00000E+00  0.00000E+00  0.00000E+00    0.22482E+02  0.12821E+02 -0.35303E+02  0.41746E+01 -0.38066E+01  0.15463E+02      982.00
  0.13007E+00  0.60936E+02    0.75000E-01  0.75000E-01 -0.15000E+00  0.00000E+00  0.00000E+00  0.00000E+00    0.22758E+02  0.12781E+02 -0.35539E+02  0.44156E+01 -0.41021E+01  0.15142E+02      982.00
  0.15194E+00  0.61169E+02    0.87500E-01  0.87500E-01 -0.17500E+00  0.00000E+00  0.00000E+00  0.00000E+00    0.23036E+02  0.12749E+02 -0.35785E+02  0.45754E+01 -0.43397E+01  0.14852E+02      982.00
  0.17388E+00  0.61426E+02    0.10000E+00  0.10000E+00 -0.20000E+00  0.00000E+00  0.00000E+00  0.00000E+00    0.23314E+02  0.12725E+02 -0.36039E+02  0.46735E+01 -0.45254E+01  0.14603E+02      982.00
  0.19588E+00  0.61704E+02    0.11250E+00  0.11250E+00 -0.22500E+00  0.00000E+00  0.00000E+00  0.00000E+00    0.23589E+02  0.12711E+02 -0.36300E+02  0.47294E+01 -0.46679E+01  0.14392E+02      982.00
  0.21794E+00  0.61998E+02    0.12500E+00  0.12500E+00 -0.25000E+00  0.00000E+00  0.00000E+00  0.00000E+00    0.23853E+02  0.12711E+02 -0.36565E+02  0.47582E+01 -0.47754E+01  0.14214E+02      982.00
  0.24005E+00  0.62299E+02    0.13750E+00  0.13750E+00 -0.27500E+00  0.00000E+00  0.00000E+00  0.00000E+00    0.24097E+02  0.12730E+02 -0.36827E+02  0.47686E+01 -0.48533E+01  0.14069E+02      982.00
  0.26222E+00  0.62607E+02    0.15000E+00  0.15000E+00 -0.30000E+00  0.00000E+00  0.00000E+00  0.00000E+00    0.24329E+02  0.12761E+02 -0.37090E+02  0.47718E+01 -0.49121E+01  0.13944E+02      982.00
  0.28444E+00  0.62912E+02    0.16250E+00  0.16250E+00 -0.32500E+00  0.00000E+00  0.00000E+00  0.00000E+00    0.24541E+02  0.12806E+02 -0.37347E+02  0.47701E+01 -0.49540E+01  0.13837E+02      982.00
  0.30670E+00  0.63208E+02    0.17500E+00  0.17500E+00 -0.35000E+00  0.00000E+00  0.00000E+00  0.00000E+00    0.24730E+02  0.12864E+02 -0.37595E+02  0.47671E+01 -0.49839E+01  0.13747E+02      982.00
  0.32900E+00  0.63497E+02    0.18750E+00  0.18750E+00 -0.37500E+00  0.00000E+00  0.00000E+00  0.00000E+00    0.24897E+02  0.12937E+02 -0.37834E+02  0.47660E+01 -0.50062E+01  0.13670E+02      982.00
  0.35135E+00  0.63793E+02    0.20000E+00  0.20000E+00 -0.40000E+00  0.00000E+00  0.00000E+00  0.00000E+00    0.25042E+02  0.13035E+02 -0.38077E+02  0.47643E+01 -0.50191E+01  0.13609E+02      982.00
  0.37373E+00  0.64075E+02    0.21250E+00  0.21250E+00 -0.42500E+00  0.00000E+00  0.00000E+00  0.00000E+00    0.25171E+02  0.13139E+02 -0.38310E+02  0.47721E+01 -0.50364E+01  0.13544E+02      982.00
  0.39615E+00  0.64370E+02    0.22500E+00  0.22500E+00 -0.45000E+00  0.00000E+00  0.00000E+00  0.00000E+00    0.25281E+02  0.13274E+02 -0.38555E+02  0.47780E+01 -0.50444E+01  0.13490E+02      982.00
  0.41861E+00  0.64631E+02    0.23750E+00  0.23750E+00 -0.47500E+00  0.00000E+00  0.00000E+00  0.00000E+00    0.25362E+02  0.13412E+02 -0.38774E+02  0.47784E+01 -0.50396E+01  0.13449E+02      982.00
  0.44111E+00  0.64867E+02    0.25000E+00  0.25000E+00 -0.50000E+00  0.00000E+00  0.00000E+00  0.00000E+00    0.25430E+02  0.13542E+02 -0.38972E+02  0.47743E+01 -0.50240E+01  0.13420E+02      982.00
  0.46364E+00  0.65106E+02    0.26250E+00  0.26250E+00 -0.52500E+00  0.00000E+00  0.00000E+00  0.00000E+00    0.25487E+02  0.13688E+02 -0.39175E+02  0.47751E+01 -0.50105E+01  0.13386E+02      982.00
  0.48620E+00  0.65334E+02    0.27500E+00  0.27500E+00 -0.55000E+00  0.00000E+00  0.00000E+00  0.00000E+00    0.25542E+02  0.13826E+02 -0.39368E+02  0.47728E+01 -0.49906E+01  0.13357E+02      982.00
  0.50880E+00  0.65548E+02    0.28750E+00  0.28750E+00 -0.57500E+00  0.00000E+00  0.00000E+00  0.00000E+00    0.25580E+02  0.13975E+02 -0.39555E+02  0.47736E+01 -0.49716E+01  0.13326E+02      982.00
  0.53143E+00  0.65751E+02    0.30000E+00  0.30000E+00 -0.60000E+00  0.00000E+00  0.00000E+00  0.00000E+00    0.25607E+02  0.14126E+02 -0.39733E+02  0.47736E+01 -0.49497E+01  0.13297E+02      982.00
  0.55409E+00  0.65941E+02    0.31250E+00  0.31250E+00 -0.62500E+00  0.00000E+00  0.00000E+00  0.00000E+00    0.25625E+02  0.14276E+02 -0.39902E+02  0.47726E+01 -0.49252E+01  0.13269E+02      982.00
  0.57678E+00  0.66119E+02    0.32500E+00  0.32500E+00 -0.65000E+00  0.00000E+00  0.00000E+00  0.00000E+00    0.25637E+02  0.14426E+02 -0.40062E+02  0.47706E+01 -0.48984E+01  0.13242E+02      982.00
  0.59950E+00  0.66286E+02    0.33750E+00  0.33750E+00 -0.67500E+00  0.00000E+00  0.00000E+00  0.00000E+00    0.25641E+02  0.14573E+02 -0.40214E+02  0.47675E+01 -0.48697E+01  0.13216E+02      982.00
  0.62225E+00  0.66443E+02    0.35000E+00  0.35000E+00 -0.70000E+00  0.00000E+00  0.00000E+00  0.00000E+00    0.25640E+02  0.14718E+02 -0.40359E+02  0.47633E+01 -0.48393E+01  0.13190E+02      982.00
  0.64503E+00  0.66589E+02    0.36250E+00  0.36250E+00 -0.72500E+00  0.00000E+00  0.00000E+00  0.00000E+00    0.25635E+02  0.14860E+02 -0.40495E+02  0.47581E+01 -0.48077E+01  0.13166E+02      982.00
  0.66784E+00  0.66725E+02    0.37500E+00  0.37500E+00 -0.75000E+00  0.00000E+00  0.00000E+00  0.00000E+00    0.25626E+02  0.14998E+02 -0.40624E+02  0.47518E+01 -0.47750E+01  0.13142E+02      982.00
  0.69067E+00  0.66852E+02    0.38750E+00  0.38750E+00 -0.77500E+00  0.00000E+00  0.00000E+00  0.00000E+00    0.25614E+02  0.15132E+02 -0.40746E+02  0.47446E+01 -0.47415E+01  0.13119E+02      982.00
  0.71353E+00  0.66971E+02    0.40000E+00  0.40000E+00 -0.80000E+00  0.00000E+00  0.00000E+00  0.00000E+00    0.25599E+02  0.15262E+02 -0.40861E+02  0.47365E+01 -0.47076E+01  0.13096E+02      982.00
  0.73641E+00  0.67082E+02    0.41250E+00  0.41250E+00 -0.82500E+00  0.00000E+00  0.00000E+00  0.00000E+00    0.25583E+02  0.15387E+02 -0.40970E+02  0.47277E+01 -0.46733E+01  0.13074E+02      982.00
  0.75931E+00  0.67185E+02    0.42500E+00  0.42500E+00 -0.85000E+00  0.00000E+00  0.00000E+00  0.00000E+00    0.25565E+02  0.15507E+02 -0.41072E+02  0.47183E+01 -0.46390E+01  0.13052E+02      982.00
  0.78223E+00  0.67281E+02    0.43750E+00  0.43750E+00 -0.87500E+00  0.00000E+00  0.00000E+00  0.00000E+00    0.25545E+02  0.15623E+02 -0.41168E+02  0.47083E+01 -0.46047E+01  0.13032E+02      982.00
  0.80518E+00  0.67371E+02    0.45000E+00  0.45000E+00 -0.90000E+00  0.00000E+00  0.00000E+00  0.00000E+00    0.25526E+02  0.15733E+02 -0.41259E+02  0.46978E+01 -0.45706E+01  0.13011E+02      982.00
  0.82814E+00  0.67455E+02    0.46250E+00  0.46250E+00 -0.92500E+00  0.00000E+00  0.00000E+00  0.00000E+00    0.25506E+02  0.15839E+02 -0.41345E+02  0.46870E+01 -0.45369E+01  0.12992E+02      982.00
  0.85113E+00  0.67534E+02    0.47500E+00  0.47500E+00 -0.95000E+00  0.00000E+00  0.00000E+00  0.00000E+00    0.25485E+02  0.15940E+02 -0.41426E+02  0.46760E+01 -0.45037E+01  0.12973E+02      982.00
  0.87413E+00  0.67607E+02    0.48750E+00  0.48750E+00 -0.97500E+00  0.00000E+00  0.00000E+00  0.00000E+00    0.25465E+02  0.16036E+02 -0.41502E+02  0.46648E+01 -0.44711E+01  0.12954E+02      982.00
  0.89715E+00  0.67674E+02    0.50000E+00  0.50000E+00 -0.10000E+01  0.00000E+00  0.00000E+00  0.00000E+00    0.25448E+02  0.16123E+02 -0.41571E+02  0.46538E+01 -0.44407E+01  0.12936E+02      982.00
