          Evm          Svm            E11          E22          E33          E23          E13          E12         SDEV11       SDEV22       SDEV33       SDEV23       SDEV13       SDEV12      TEMP
  0.00000E+00  0.60933E+02    0.00000E+00  0.00000E+00  0.00000E+00  0.00000E+00  0.00000E+00  0.00000E+00    0.17097E+02  0.22571E+02 -0.39668E+02 -0.38056E+01  0.28725E+01  0.52162E+01      982.00
  0.24413E-01  0.61185E+02    0.12500E-01  0.12500E-01 -0.25000E-01  0.00000E+00  0.00000E+00  0.00000E+00    0.18088E+02  0.21725E+02 -0.39813E+02 -0.38048E+01  0.31847E+01  0.55770E+01      982.00
  0.48815E-01  0.61456E+02    0.25000E-01  0.25000E-01 -0.50000E-01  0.00000E+00  0.00000E+00  0.00000E+00    0.19056E+02  0.20900E+02 -0.39956E+02 -0.37753E+01  0.34165E+01  0.58993E+01      982.00
  0.73196E-01  0.61703E+02    0.37500E-01  0.37500E-01 -0.75000E-01  0.00000E+00  0.00000E+00  0.00000E+00    0.19885E+02  0.20191E+02 -0.40076E+02 -0.37210E+01  0.35321E+01  0.61759E+01      982.00
  0.97552E-01  0.61917E+02    0.50000E-01  0.50000E-01 -0.10000E+00  0.00000E+00  0.00000E+00  0.00000E+00    0.20530E+02  0.19648E+02 -0.40177E+02 -0.36515E+01  0.35324E+01  0.64209E+01      982.00
  0.12189E+00  0.62115E+02    0.62500E-01  0.62500E-01 -0.12500E+00  0.00000E+00  0.00000E+00  0.00000E+00    0.21023E+02  0.19246E+02 -0.40269E+02 -0.35730E+01  0.34608E+01  0.66607E+01      982.00
  0.14620E+00  0.62312E+02    0.75000E-01  0.75000E-01 -0.15000E+00  0.00000E+00  0.00000E+00  0.00000E+00    0.21395E+02  0.18964E+02 -0.40359E+02 -0.34931E+01  0.33468E+01  0.69066E+01      982.00
  0.17049E+00  0.62522E+02    0.87500E-01  0.87500E-01 -0.17500E+00  0.00000E+00  0.00000E+00  0.00000E+00    0.21693E+02  0.18762E+02 -0.40455E+02 -0.34138E+01  0.32219E+01  0.71640E+01      982.00
  0.19475E+00  0.62746E+02    0.10000E+00  0.10000E+00 -0.20000E+00  0.00000E+00  0.00000E+00  0.00000E+00    0.21928E+02  0.18629E+02 -0.40558E+02 -0.33396E+01  0.30933E+01  0.74325E+01      982.00
  0.21899E+00  0.62989E+02    0.11250E+00  0.11250E+00 -0.22500E+00  0.00000E+00  0.00000E+00  0.00000E+00    0.22124E+02  0.18542E+02 -0.40666E+02 -0.32714E+01  0.29735E+01  0.77130E+01      982.00
  0.24320E+00  0.63249E+02    0.12500E+00  0.12500E+00 -0.25000E+00  0.00000E+00  0.00000E+00  0.00000E+00    0.22292E+02  0.18488E+02 -0.40780E+02 -0.32096E+01  0.28668E+01  0.80058E+01      982.00
  0.26738E+00  0.63526E+02    0.13750E+00  0.13750E+00 -0.27500E+00  0.00000E+00  0.00000E+00  0.00000E+00    0.22439E+02  0.18459E+02 -0.40898E+02 -0.31552E+01  0.27748E+01  0.83137E+01      982.00
  0.29152E+00  0.63808E+02    0.15000E+00  0.15000E+00 -0.30000E+00  0.00000E+00  0.00000E+00  0.00000E+00    0.22560E+02  0.18457E+02 -0.41017E+02 -0.31121E+01  0.26965E+01  0.86136E+01      982.00
  0.31563E+00  0.64082E+02    0.16250E+00  0.16250E+00 -0.32500E+00  0.00000E+00  0.00000E+00  0.00000E+00    0.22667E+02  0.18458E+02 -0.41125E+02 -0.30706E+01  0.26395E+01  0.89186E+01      982.00
  0.33969E+00  0.64364E+02    0.17500E+00  0.17500E+00 -0.35000E+00  0.00000E+00  0.00000E+00  0.00000E+00    0.22760E+02  0.18477E+02 -0.41237E+02 -0.30384E+01  0.25929E+01  0.92194E+01      982.00
  0.36372E+00  0.64639E+02    0.18750E+00  0.18750E+00 -0.37500E+00  0.00000E+00  0.00000E+00  0.00000E+00    0.22840E+02  0.18501E+02 -0.41341E+02 -0.30099E+01  0.25609E+01  0.95190E+01      982.00
  0.38770E+00  0.64904E+02    0.20000E+00  0.20000E+00 -0.40000E+00  0.00000E+00  0.00000E+00  0.00000E+00    0.22909E+02  0.18526E+02 -0.41435E+02 -0.29842E+01  0.25423E+01  0.98164E+01      982.00
  0.41164E+00  0.65156E+02    0.21250E+00  0.21250E+00 -0.42500E+00  0.00000E+00  0.00000E+00  0.00000E+00    0.22967E+02  0.18550E+02 -0.41518E+02 -0.29607E+01  0.25355E+01  0.10111E+02      982.00
  0.43554E+00  0.65392E+02    0.22500E+00  0.22500E+00 -0.45000E+00  0.00000E+00  0.00000E+00  0.00000E+00    0.23016E+02  0.18571E+02 -0.41588E+02 -0.29391E+01  0.25388E+01  0.10402E+02      982.00
  0.45939E+00  0.65612E+02    0.23750E+00  0.23750E+00 -0.47500E+00  0.00000E+00  0.00000E+00  0.00000E+00    0.23057E+02  0.18587E+02 -0.41645E+02 -0.29193E+01  0.25502E+01  0.10689E+02      982.00
  0.48319E+00  0.65840E+02    0.25000E+00  0.25000E+00 -0.50000E+00  0.00000E+00  0.00000E+00  0.00000E+00    0.23101E+02  0.18593E+02 -0.41694E+02 -0.28973E+01  0.25765E+01  0.11005E+02      982.00
  0.50693E+00  0.66023E+02    0.26250E+00  0.26250E+00 -0.52500E+00  0.00000E+00  0.00000E+00  0.00000E+00    0.23129E+02  0.18593E+02 -0.41723E+02 -0.28804E+01  0.25979E+01  0.11280E+02      982.00
  0.53063E+00  0.66188E+02    0.27500E+00  0.27500E+00 -0.55000E+00  0.00000E+00  0.00000E+00  0.00000E+00    0.23154E+02  0.18584E+02 -0.41739E+02 -0.28659E+01  0.26202E+01  0.11550E+02      982.00
  0.55428E+00  0.66335E+02    0.28750E+00  0.28750E+00 -0.57500E+00  0.00000E+00  0.00000E+00  0.00000E+00    0.23177E+02  0.18565E+02 -0.41741E+02 -0.28528E+01  0.26416E+01  0.11815E+02      982.00
  0.57788E+00  0.66465E+02    0.30000E+00  0.30000E+00 -0.60000E+00  0.00000E+00  0.00000E+00  0.00000E+00    0.23198E+02  0.18534E+02 -0.41731E+02 -0.28405E+01  0.26602E+01  0.12076E+02      982.00
  0.60142E+00  0.66578E+02    0.31250E+00  0.31250E+00 -0.62500E+00  0.00000E+00  0.00000E+00  0.00000E+00    0.23218E+02  0.18491E+02 -0.41709E+02 -0.28280E+01  0.26743E+01  0.12332E+02      982.00
  0.62491E+00  0.66674E+02    0.32500E+00  0.32500E+00 -0.65000E+00  0.00000E+00  0.00000E+00  0.00000E+00    0.23238E+02  0.18437E+02 -0.41675E+02 -0.28139E+01  0.26822E+01  0.12584E+02      982.00
  0.64835E+00  0.66754E+02    0.33750E+00  0.33750E+00 -0.67500E+00  0.00000E+00  0.00000E+00  0.00000E+00    0.23257E+02  0.18372E+02 -0.41629E+02 -0.27964E+01  0.26820E+01  0.12832E+02      982.00
  0.67174E+00  0.66819E+02    0.35000E+00  0.35000E+00 -0.70000E+00  0.00000E+00  0.00000E+00  0.00000E+00    0.23276E+02  0.18297E+02 -0.41573E+02 -0.27733E+01  0.26721E+01  0.13076E+02      982.00
  0.69507E+00  0.66869E+02    0.36250E+00  0.36250E+00 -0.72500E+00  0.00000E+00  0.00000E+00  0.00000E+00    0.23295E+02  0.18212E+02 -0.41507E+02 -0.27423E+01  0.26509E+01  0.13317E+02      982.00
  0.71835E+00  0.66896E+02    0.37500E+00  0.37500E+00 -0.75000E+00  0.00000E+00  0.00000E+00  0.00000E+00    0.23302E+02  0.18128E+02 -0.41431E+02 -0.27099E+01  0.26178E+01  0.13543E+02      982.00
  0.74157E+00  0.66923E+02    0.38750E+00  0.38750E+00 -0.77500E+00  0.00000E+00  0.00000E+00  0.00000E+00    0.23319E+02  0.18031E+02 -0.41350E+02 -0.26578E+01  0.25705E+01  0.13779E+02      982.00
  0.76474E+00  0.66938E+02    0.40000E+00  0.40000E+00 -0.80000E+00  0.00000E+00  0.00000E+00  0.00000E+00    0.23336E+02  0.17928E+02 -0.41263E+02 -0.25902E+01  0.25068E+01  0.14010E+02      982.00
  0.78786E+00  0.66952E+02    0.41250E+00  0.41250E+00 -0.82500E+00  0.00000E+00  0.00000E+00  0.00000E+00    0.23346E+02  0.17826E+02 -0.41172E+02 -0.25193E+01  0.24338E+01  0.14246E+02      982.00
  0.81092E+00  0.66953E+02    0.42500E+00  0.42500E+00 -0.85000E+00  0.00000E+00  0.00000E+00  0.00000E+00    0.23360E+02  0.17721E+02 -0.41081E+02 -0.24178E+01  0.23354E+01  0.14465E+02      982.00
  0.83393E+00  0.66948E+02    0.43750E+00  0.43750E+00 -0.87500E+00  0.00000E+00  0.00000E+00  0.00000E+00    0.23372E+02  0.17619E+02 -0.40991E+02 -0.22969E+01  0.22178E+01  0.14675E+02      982.00
  0.85689E+00  0.66951E+02    0.45000E+00  0.45000E+00 -0.90000E+00  0.00000E+00  0.00000E+00  0.00000E+00    0.23384E+02  0.17523E+02 -0.40907E+02 -0.21646E+01  0.20879E+01  0.14882E+02      982.00
  0.87980E+00  0.66951E+02    0.46250E+00  0.46250E+00 -0.92500E+00  0.00000E+00  0.00000E+00  0.00000E+00    0.23393E+02  0.17435E+02 -0.40828E+02 -0.20223E+01  0.19485E+01  0.15074E+02      982.00
  0.90267E+00  0.66947E+02    0.47500E+00  0.47500E+00 -0.95000E+00  0.00000E+00  0.00000E+00  0.00000E+00    0.23395E+02  0.17359E+02 -0.40754E+02 -0.18624E+01  0.17914E+01  0.15247E+02      982.00
  0.92550E+00  0.66951E+02    0.48750E+00  0.48750E+00 -0.97500E+00  0.00000E+00  0.00000E+00  0.00000E+00    0.23396E+02  0.17294E+02 -0.40691E+02 -0.17077E+01  0.16386E+01  0.15409E+02      982.00
  0.94829E+00  0.66958E+02    0.50000E+00  0.50000E+00 -0.10000E+01  0.00000E+00  0.00000E+00  0.00000E+00    0.23391E+02  0.17245E+02 -0.40635E+02 -0.15525E+01  0.14826E+01  0.15557E+02      982.00
