          Evm          Svm            E11          E22          E33          E23          E13          E12         SDEV11       SDEV22       SDEV33       SDEV23       SDEV13       SDEV12      TEMP
  0.00000E+00  0.60742E+02    0.00000E+00  0.00000E+00  0.00000E+00  0.00000E+00  0.00000E+00  0.00000E+00    0.13767E+02  0.24808E+02 -0.38575E+02  0.44900E+01  0.20883E+01 -0.76699E+01      982.00
  0.23815E-01  0.61037E+02    0.12500E-01  0.12500E-01 -0.25000E-01  0.00000E+00  0.00000E+00  0.00000E+00    0.14052E+02  0.24737E+02 -0.38789E+02  0.45264E+01  0.22285E+01 -0.77083E+01      982.00
  0.47646E-01  0.61186E+02    0.25000E-01  0.25000E-01 -0.50000E-01  0.00000E+00  0.00000E+00  0.00000E+00    0.14460E+02  0.24488E+02 -0.38947E+02  0.44941E+01  0.24583E+01 -0.76702E+01      982.00
  0.71517E-01  0.61158E+02    0.37500E-01  0.37500E-01 -0.75000E-01  0.00000E+00  0.00000E+00  0.00000E+00    0.14845E+02  0.24158E+02 -0.39003E+02  0.44867E+01  0.26082E+01 -0.75663E+01      982.00
  0.95432E-01  0.61194E+02    0.50000E-01  0.50000E-01 -0.10000E+00  0.00000E+00  0.00000E+00  0.00000E+00    0.15106E+02  0.23964E+02 -0.39070E+02  0.46064E+01  0.25952E+01 -0.74702E+01      982.00
  0.11937E+00  0.61349E+02    0.62500E-01  0.62500E-01 -0.12500E+00  0.00000E+00  0.00000E+00  0.00000E+00    0.15236E+02  0.23950E+02 -0.39187E+02  0.47987E+01  0.24623E+01 -0.74025E+01      982.00
  0.14333E+00  0.61538E+02    0.75000E-01  0.75000E-01 -0.15000E+00  0.00000E+00  0.00000E+00  0.00000E+00    0.15330E+02  0.23986E+02 -0.39317E+02  0.49854E+01  0.23275E+01 -0.73445E+01      982.00
  0.16729E+00  0.61793E+02    0.87500E-01  0.87500E-01 -0.17500E+00  0.00000E+00  0.00000E+00  0.00000E+00    0.15381E+02  0.24097E+02 -0.39477E+02  0.51532E+01  0.22015E+01 -0.73176E+01      982.00
  0.19124E+00  0.62088E+02    0.10000E+00  0.10000E+00 -0.20000E+00  0.00000E+00  0.00000E+00  0.00000E+00    0.15404E+02  0.24254E+02 -0.39658E+02  0.52887E+01  0.20949E+01 -0.73110E+01      982.00
  0.21520E+00  0.62410E+02    0.11250E+00  0.11250E+00 -0.22500E+00  0.00000E+00  0.00000E+00  0.00000E+00    0.15410E+02  0.24443E+02 -0.39854E+02  0.53920E+01  0.20101E+01 -0.73205E+01      982.00
  0.23914E+00  0.62754E+02    0.12500E+00  0.12500E+00 -0.25000E+00  0.00000E+00  0.00000E+00  0.00000E+00    0.15402E+02  0.24660E+02 -0.40062E+02  0.54671E+01  0.19422E+01 -0.73410E+01      982.00
  0.26308E+00  0.63103E+02    0.13750E+00  0.13750E+00 -0.27500E+00  0.00000E+00  0.00000E+00  0.00000E+00    0.15391E+02  0.24882E+02 -0.40273E+02  0.55180E+01  0.18957E+01 -0.73693E+01      982.00
  0.28702E+00  0.63458E+02    0.15000E+00  0.15000E+00 -0.30000E+00  0.00000E+00  0.00000E+00  0.00000E+00    0.15377E+02  0.25113E+02 -0.40490E+02  0.55502E+01  0.18631E+01 -0.74016E+01      982.00
  0.31094E+00  0.63809E+02    0.16250E+00  0.16250E+00 -0.32500E+00  0.00000E+00  0.00000E+00  0.00000E+00    0.15364E+02  0.25341E+02 -0.40704E+02  0.55675E+01  0.18447E+01 -0.74347E+01      982.00
  0.33486E+00  0.64151E+02    0.17500E+00  0.17500E+00 -0.35000E+00  0.00000E+00  0.00000E+00  0.00000E+00    0.15362E+02  0.25554E+02 -0.40916E+02  0.55721E+01  0.18442E+01 -0.74676E+01      982.00
  0.35878E+00  0.64477E+02    0.18750E+00  0.18750E+00 -0.37500E+00  0.00000E+00  0.00000E+00  0.00000E+00    0.15363E+02  0.25757E+02 -0.41120E+02  0.55658E+01  0.18498E+01 -0.74948E+01      982.00
  0.38270E+00  0.64780E+02    0.20000E+00  0.20000E+00 -0.40000E+00  0.00000E+00  0.00000E+00  0.00000E+00    0.15363E+02  0.25948E+02 -0.41310E+02  0.55555E+01  0.18633E+01 -0.75198E+01      982.00
  0.40661E+00  0.65068E+02    0.21250E+00  0.21250E+00 -0.42500E+00  0.00000E+00  0.00000E+00  0.00000E+00    0.15367E+02  0.26125E+02 -0.41492E+02  0.55418E+01  0.18865E+01 -0.75420E+01      982.00
  0.43052E+00  0.65347E+02    0.22500E+00  0.22500E+00 -0.45000E+00  0.00000E+00  0.00000E+00  0.00000E+00    0.15378E+02  0.26292E+02 -0.41670E+02  0.55236E+01  0.19187E+01 -0.75594E+01      982.00
  0.45444E+00  0.65619E+02    0.23750E+00  0.23750E+00 -0.47500E+00  0.00000E+00  0.00000E+00  0.00000E+00    0.15398E+02  0.26449E+02 -0.41847E+02  0.54979E+01  0.19599E+01 -0.75694E+01      982.00
  0.47835E+00  0.65883E+02    0.25000E+00  0.25000E+00 -0.50000E+00  0.00000E+00  0.00000E+00  0.00000E+00    0.15424E+02  0.26599E+02 -0.42023E+02  0.54635E+01  0.20096E+01 -0.75720E+01      982.00
  0.50227E+00  0.66093E+02    0.26250E+00  0.26250E+00 -0.52500E+00  0.00000E+00  0.00000E+00  0.00000E+00    0.15459E+02  0.26706E+02 -0.42165E+02  0.54318E+01  0.20563E+01 -0.75718E+01      982.00
  0.52619E+00  0.66286E+02    0.27500E+00  0.27500E+00 -0.55000E+00  0.00000E+00  0.00000E+00  0.00000E+00    0.15497E+02  0.26800E+02 -0.42297E+02  0.53999E+01  0.21050E+01 -0.75683E+01      982.00
  0.55012E+00  0.66446E+02    0.28750E+00  0.28750E+00 -0.57500E+00  0.00000E+00  0.00000E+00  0.00000E+00    0.15531E+02  0.26875E+02 -0.42407E+02  0.53788E+01  0.21420E+01 -0.75675E+01      982.00
  0.57406E+00  0.66608E+02    0.30000E+00  0.30000E+00 -0.60000E+00  0.00000E+00  0.00000E+00  0.00000E+00    0.15561E+02  0.26957E+02 -0.42518E+02  0.53536E+01  0.21799E+01 -0.75615E+01      982.00
  0.59799E+00  0.66764E+02    0.31250E+00  0.31250E+00 -0.62500E+00  0.00000E+00  0.00000E+00  0.00000E+00    0.15589E+02  0.27038E+02 -0.42627E+02  0.53238E+01  0.22164E+01 -0.75486E+01      982.00
  0.62194E+00  0.66906E+02    0.32500E+00  0.32500E+00 -0.65000E+00  0.00000E+00  0.00000E+00  0.00000E+00    0.15618E+02  0.27109E+02 -0.42727E+02  0.52953E+01  0.22621E+01 -0.75341E+01      982.00
  0.64588E+00  0.67035E+02    0.33750E+00  0.33750E+00 -0.67500E+00  0.00000E+00  0.00000E+00  0.00000E+00    0.15646E+02  0.27172E+02 -0.42819E+02  0.52670E+01  0.23083E+01 -0.75172E+01      982.00
  0.66984E+00  0.67152E+02    0.35000E+00  0.35000E+00 -0.70000E+00  0.00000E+00  0.00000E+00  0.00000E+00    0.15674E+02  0.27229E+02 -0.42903E+02  0.52389E+01  0.23543E+01 -0.74983E+01      982.00
  0.69380E+00  0.67258E+02    0.36250E+00  0.36250E+00 -0.72500E+00  0.00000E+00  0.00000E+00  0.00000E+00    0.15701E+02  0.27281E+02 -0.42981E+02  0.52113E+01  0.24000E+01 -0.74776E+01      982.00
  0.71776E+00  0.67355E+02    0.37500E+00  0.37500E+00 -0.75000E+00  0.00000E+00  0.00000E+00  0.00000E+00    0.15726E+02  0.27327E+02 -0.43053E+02  0.51841E+01  0.24453E+01 -0.74553E+01      982.00
  0.74173E+00  0.67450E+02    0.38750E+00  0.38750E+00 -0.77500E+00  0.00000E+00  0.00000E+00  0.00000E+00    0.15743E+02  0.27379E+02 -0.43122E+02  0.51600E+01  0.24861E+01 -0.74282E+01      982.00
  0.76571E+00  0.67529E+02    0.40000E+00  0.40000E+00 -0.80000E+00  0.00000E+00  0.00000E+00  0.00000E+00    0.15765E+02  0.27417E+02 -0.43182E+02  0.51341E+01  0.25298E+01 -0.74033E+01      982.00
  0.78969E+00  0.67600E+02    0.41250E+00  0.41250E+00 -0.82500E+00  0.00000E+00  0.00000E+00  0.00000E+00    0.15786E+02  0.27452E+02 -0.43237E+02  0.51086E+01  0.25734E+01 -0.73773E+01      982.00
  0.81367E+00  0.67665E+02    0.42500E+00  0.42500E+00 -0.85000E+00  0.00000E+00  0.00000E+00  0.00000E+00    0.15805E+02  0.27483E+02 -0.43288E+02  0.50836E+01  0.26165E+01 -0.73504E+01      982.00
  0.83766E+00  0.67724E+02    0.43750E+00  0.43750E+00 -0.87500E+00  0.00000E+00  0.00000E+00  0.00000E+00    0.15823E+02  0.27511E+02 -0.43334E+02  0.50590E+01  0.26593E+01 -0.73226E+01      982.00
  0.86166E+00  0.67781E+02    0.45000E+00  0.45000E+00 -0.90000E+00  0.00000E+00  0.00000E+00  0.00000E+00    0.15838E+02  0.27542E+02 -0.43380E+02  0.50358E+01  0.27010E+01 -0.72906E+01      982.00
  0.88566E+00  0.67763E+02    0.46250E+00  0.46250E+00 -0.92500E+00  0.00000E+00  0.00000E+00  0.00000E+00    0.15857E+02  0.27527E+02 -0.43383E+02  0.49916E+01  0.27333E+01 -0.72510E+01      982.00
  0.90966E+00  0.67752E+02    0.47500E+00  0.47500E+00 -0.95000E+00  0.00000E+00  0.00000E+00  0.00000E+00    0.15864E+02  0.27525E+02 -0.43389E+02  0.49544E+01  0.27598E+01 -0.72100E+01      982.00
  0.93368E+00  0.67736E+02    0.48750E+00  0.48750E+00 -0.97500E+00  0.00000E+00  0.00000E+00  0.00000E+00    0.15882E+02  0.27513E+02 -0.43395E+02  0.49125E+01  0.27928E+01 -0.71643E+01      982.00
  0.95770E+00  0.67724E+02    0.50000E+00  0.50000E+00 -0.10000E+01  0.00000E+00  0.00000E+00  0.00000E+00    0.15887E+02  0.27510E+02 -0.43397E+02  0.48779E+01  0.28191E+01 -0.71298E+01      982.00
