          Evm          Svm            E11          E22          E33          E23          E13          E12         SDEV11       SDEV22       SDEV33       SDEV23       SDEV13       SDEV12      TEMP
  0.00000E+00  0.64445E+02    0.00000E+00  0.00000E+00  0.00000E+00  0.00000E+00  0.00000E+00  0.00000E+00    0.20546E+02  0.21188E+02 -0.41734E+02 -0.20860E+01  0.11902E+01  0.85002E+01      982.00
  0.24284E-01  0.64454E+02    0.12500E-01  0.12500E-01 -0.25000E-01  0.00000E+00  0.00000E+00  0.00000E+00    0.19973E+02  0.21735E+02 -0.41707E+02 -0.20844E+01  0.10585E+01  0.85957E+01      982.00
  0.48550E-01  0.64482E+02    0.25000E-01  0.25000E-01 -0.50000E-01  0.00000E+00  0.00000E+00  0.00000E+00    0.19565E+02  0.22122E+02 -0.41687E+02 -0.21440E+01  0.94280E+00  0.86880E+01      982.00
  0.72794E-01  0.64536E+02    0.37500E-01  0.37500E-01 -0.75000E-01  0.00000E+00  0.00000E+00  0.00000E+00    0.19249E+02  0.22430E+02 -0.41679E+02 -0.22139E+01  0.85683E+00  0.87925E+01      982.00
  0.97012E-01  0.64622E+02    0.50000E-01  0.50000E-01 -0.10000E+00  0.00000E+00  0.00000E+00  0.00000E+00    0.19007E+02  0.22680E+02 -0.41687E+02 -0.22820E+01  0.79859E+00  0.89128E+01      982.00
  0.12120E+00  0.64739E+02    0.62500E-01  0.62500E-01 -0.12500E+00  0.00000E+00  0.00000E+00  0.00000E+00    0.18825E+02  0.22888E+02 -0.41713E+02 -0.23439E+01  0.76373E+00  0.90489E+01      982.00
  0.14536E+00  0.64887E+02    0.75000E-01  0.75000E-01 -0.15000E+00  0.00000E+00  0.00000E+00  0.00000E+00    0.18695E+02  0.23063E+02 -0.41758E+02 -0.23996E+01  0.74787E+00  0.91962E+01      982.00
  0.16950E+00  0.65069E+02    0.87500E-01  0.87500E-01 -0.17500E+00  0.00000E+00  0.00000E+00  0.00000E+00    0.18611E+02  0.23212E+02 -0.41823E+02 -0.24507E+01  0.74589E+00  0.93600E+01      982.00
  0.19360E+00  0.65266E+02    0.10000E+00  0.10000E+00 -0.20000E+00  0.00000E+00  0.00000E+00  0.00000E+00    0.18550E+02  0.23348E+02 -0.41898E+02 -0.24931E+01  0.75549E+00  0.95258E+01      982.00
  0.21767E+00  0.65493E+02    0.11250E+00  0.11250E+00 -0.22500E+00  0.00000E+00  0.00000E+00  0.00000E+00    0.18526E+02  0.23467E+02 -0.41993E+02 -0.25356E+01  0.77495E+00  0.97013E+01      982.00
  0.24172E+00  0.65745E+02    0.12500E+00  0.12500E+00 -0.25000E+00  0.00000E+00  0.00000E+00  0.00000E+00    0.18510E+02  0.23587E+02 -0.42097E+02 -0.25676E+01  0.79847E+00  0.99004E+01      982.00
  0.26573E+00  0.65973E+02    0.13750E+00  0.13750E+00 -0.27500E+00  0.00000E+00  0.00000E+00  0.00000E+00    0.18533E+02  0.23668E+02 -0.42202E+02 -0.26056E+01  0.83241E+00  0.10049E+02      982.00
  0.28972E+00  0.66274E+02    0.15000E+00  0.15000E+00 -0.30000E+00  0.00000E+00  0.00000E+00  0.00000E+00    0.18565E+02  0.23771E+02 -0.42336E+02 -0.26372E+01  0.86894E+00  0.10264E+02      982.00
  0.31367E+00  0.66488E+02    0.16250E+00  0.16250E+00 -0.32500E+00  0.00000E+00  0.00000E+00  0.00000E+00    0.18608E+02  0.23827E+02 -0.42435E+02 -0.26627E+01  0.90661E+00  0.10405E+02      982.00
  0.33761E+00  0.66737E+02    0.17500E+00  0.17500E+00 -0.35000E+00  0.00000E+00  0.00000E+00  0.00000E+00    0.18669E+02  0.23887E+02 -0.42556E+02 -0.26893E+01  0.94938E+00  0.10555E+02      982.00
  0.36152E+00  0.66974E+02    0.18750E+00  0.18750E+00 -0.37500E+00  0.00000E+00  0.00000E+00  0.00000E+00    0.18736E+02  0.23936E+02 -0.42672E+02 -0.27112E+01  0.99258E+00  0.10696E+02      982.00
  0.38541E+00  0.67195E+02    0.20000E+00  0.20000E+00 -0.40000E+00  0.00000E+00  0.00000E+00  0.00000E+00    0.18804E+02  0.23981E+02 -0.42784E+02 -0.27295E+01  0.10354E+01  0.10815E+02      982.00
  0.40929E+00  0.67438E+02    0.21250E+00  0.21250E+00 -0.42500E+00  0.00000E+00  0.00000E+00  0.00000E+00    0.18886E+02  0.24019E+02 -0.42905E+02 -0.27444E+01  0.10809E+01  0.10956E+02      982.00
  0.43315E+00  0.67640E+02    0.22500E+00  0.22500E+00 -0.45000E+00  0.00000E+00  0.00000E+00  0.00000E+00    0.18958E+02  0.24052E+02 -0.43009E+02 -0.27561E+01  0.11234E+01  0.11062E+02      982.00
  0.45699E+00  0.67829E+02    0.23750E+00  0.23750E+00 -0.47500E+00  0.00000E+00  0.00000E+00  0.00000E+00    0.19032E+02  0.24073E+02 -0.43105E+02 -0.27626E+01  0.11650E+01  0.11167E+02      982.00
  0.48082E+00  0.67977E+02    0.25000E+00  0.25000E+00 -0.50000E+00  0.00000E+00  0.00000E+00  0.00000E+00    0.19101E+02  0.24080E+02 -0.43181E+02 -0.27631E+01  0.12006E+01  0.11251E+02      982.00
  0.50464E+00  0.68141E+02    0.26250E+00  0.26250E+00 -0.52500E+00  0.00000E+00  0.00000E+00  0.00000E+00    0.19174E+02  0.24091E+02 -0.43265E+02 -0.27646E+01  0.12399E+01  0.11340E+02      982.00
  0.52845E+00  0.68291E+02    0.27500E+00  0.27500E+00 -0.55000E+00  0.00000E+00  0.00000E+00  0.00000E+00    0.19246E+02  0.24097E+02 -0.43343E+02 -0.27637E+01  0.12777E+01  0.11421E+02      982.00
  0.55225E+00  0.68429E+02    0.28750E+00  0.28750E+00 -0.57500E+00  0.00000E+00  0.00000E+00  0.00000E+00    0.19316E+02  0.24099E+02 -0.43415E+02 -0.27607E+01  0.13139E+01  0.11495E+02      982.00
  0.57605E+00  0.68539E+02    0.30000E+00  0.30000E+00 -0.60000E+00  0.00000E+00  0.00000E+00  0.00000E+00    0.19386E+02  0.24085E+02 -0.43472E+02 -0.27539E+01  0.13489E+01  0.11559E+02      982.00
  0.59983E+00  0.68657E+02    0.31250E+00  0.31250E+00 -0.62500E+00  0.00000E+00  0.00000E+00  0.00000E+00    0.19452E+02  0.24082E+02 -0.43534E+02 -0.27480E+01  0.13827E+01  0.11621E+02      982.00
  0.62361E+00  0.68763E+02    0.32500E+00  0.32500E+00 -0.65000E+00  0.00000E+00  0.00000E+00  0.00000E+00    0.19512E+02  0.24078E+02 -0.43590E+02 -0.27405E+01  0.14146E+01  0.11676E+02      982.00
  0.64738E+00  0.68857E+02    0.33750E+00  0.33750E+00 -0.67500E+00  0.00000E+00  0.00000E+00  0.00000E+00    0.19577E+02  0.24062E+02 -0.43640E+02 -0.27293E+01  0.14498E+01  0.11728E+02      982.00
  0.67115E+00  0.68940E+02    0.35000E+00  0.35000E+00 -0.70000E+00  0.00000E+00  0.00000E+00  0.00000E+00    0.19631E+02  0.24052E+02 -0.43684E+02 -0.27205E+01  0.14801E+01  0.11772E+02      982.00
  0.69491E+00  0.69022E+02    0.36250E+00  0.36250E+00 -0.72500E+00  0.00000E+00  0.00000E+00  0.00000E+00    0.19682E+02  0.24046E+02 -0.43728E+02 -0.27103E+01  0.15081E+01  0.11813E+02      982.00
  0.71867E+00  0.69096E+02    0.37500E+00  0.37500E+00 -0.75000E+00  0.00000E+00  0.00000E+00  0.00000E+00    0.19729E+02  0.24039E+02 -0.43768E+02 -0.26996E+01  0.15348E+01  0.11850E+02      982.00
  0.74242E+00  0.69164E+02    0.38750E+00  0.38750E+00 -0.77500E+00  0.00000E+00  0.00000E+00  0.00000E+00    0.19773E+02  0.24031E+02 -0.43804E+02 -0.26887E+01  0.15604E+01  0.11884E+02      982.00
  0.76617E+00  0.69226E+02    0.40000E+00  0.40000E+00 -0.80000E+00  0.00000E+00  0.00000E+00  0.00000E+00    0.19814E+02  0.24024E+02 -0.43838E+02 -0.26777E+01  0.15848E+01  0.11914E+02      982.00
  0.78992E+00  0.69287E+02    0.41250E+00  0.41250E+00 -0.82500E+00  0.00000E+00  0.00000E+00  0.00000E+00    0.19861E+02  0.24010E+02 -0.43871E+02 -0.26606E+01  0.16176E+01  0.11947E+02      982.00
  0.81366E+00  0.69337E+02    0.42500E+00  0.42500E+00 -0.85000E+00  0.00000E+00  0.00000E+00  0.00000E+00    0.19889E+02  0.24009E+02 -0.43899E+02 -0.26546E+01  0.16316E+01  0.11969E+02      982.00
  0.83740E+00  0.69385E+02    0.43750E+00  0.43750E+00 -0.87500E+00  0.00000E+00  0.00000E+00  0.00000E+00    0.19928E+02  0.23996E+02 -0.43925E+02 -0.26381E+01  0.16615E+01  0.11995E+02      982.00
  0.86114E+00  0.69429E+02    0.45000E+00  0.45000E+00 -0.90000E+00  0.00000E+00  0.00000E+00  0.00000E+00    0.19959E+02  0.23990E+02 -0.43949E+02 -0.26256E+01  0.16835E+01  0.12016E+02      982.00
  0.88488E+00  0.69470E+02    0.46250E+00  0.46250E+00 -0.92500E+00  0.00000E+00  0.00000E+00  0.00000E+00    0.19981E+02  0.23991E+02 -0.43972E+02 -0.26221E+01  0.16943E+01  0.12034E+02      982.00
  0.90862E+00  0.69506E+02    0.47500E+00  0.47500E+00 -0.95000E+00  0.00000E+00  0.00000E+00  0.00000E+00    0.20011E+02  0.23980E+02 -0.43991E+02 -0.26062E+01  0.17211E+01  0.12053E+02      982.00
  0.93235E+00  0.69544E+02    0.48750E+00  0.48750E+00 -0.97500E+00  0.00000E+00  0.00000E+00  0.00000E+00    0.20032E+02  0.23980E+02 -0.44012E+02 -0.26019E+01  0.17321E+01  0.12069E+02      982.00
  0.95608E+00  0.69545E+02    0.50000E+00  0.50000E+00 -0.10000E+01  0.00000E+00  0.00000E+00  0.00000E+00    0.20041E+02  0.23968E+02 -0.44009E+02 -0.25794E+01  0.17400E+01  0.12084E+02      982.00
