          Evm          Svm            E11          E22          E33          E23          E13          E12         SDEV11       SDEV22       SDEV33       SDEV23       SDEV13       SDEV12      TEMP
  0.00000E+00  0.54618E+02    0.00000E+00  0.00000E+00  0.00000E+00  0.00000E+00  0.00000E+00  0.00000E+00    0.20061E+02  0.13341E+02 -0.33402E+02 -0.18583E+01  0.49474E+01  0.10880E+02      982.00
  0.22933E-01  0.54553E+02    0.12500E-01  0.12500E-01 -0.25000E-01  0.00000E+00  0.00000E+00  0.00000E+00    0.19771E+02  0.13633E+02 -0.33403E+02 -0.20195E+01  0.45166E+01  0.11013E+02      982.00
  0.45895E-01  0.54577E+02    0.25000E-01  0.25000E-01 -0.50000E-01  0.00000E+00  0.00000E+00  0.00000E+00    0.19469E+02  0.13970E+02 -0.33439E+02 -0.21718E+01  0.40994E+01  0.11189E+02      982.00
  0.68871E-01  0.54692E+02    0.37500E-01  0.37500E-01 -0.75000E-01  0.00000E+00  0.00000E+00  0.00000E+00    0.19199E+02  0.14305E+02 -0.33504E+02 -0.23017E+01  0.37259E+01  0.11402E+02      982.00
  0.91843E-01  0.54913E+02    0.50000E-01  0.50000E-01 -0.10000E+00  0.00000E+00  0.00000E+00  0.00000E+00    0.19022E+02  0.14587E+02 -0.33609E+02 -0.24034E+01  0.34133E+01  0.11647E+02      982.00
  0.11479E+00  0.55239E+02    0.62500E-01  0.62500E-01 -0.12500E+00  0.00000E+00  0.00000E+00  0.00000E+00    0.18947E+02  0.14808E+02 -0.33755E+02 -0.24827E+01  0.31544E+01  0.11924E+02      982.00
  0.13771E+00  0.55661E+02    0.75000E-01  0.75000E-01 -0.15000E+00  0.00000E+00  0.00000E+00  0.00000E+00    0.18957E+02  0.14986E+02 -0.33943E+02 -0.25465E+01  0.29411E+01  0.12229E+02      982.00
  0.16058E+00  0.56135E+02    0.87500E-01  0.87500E-01 -0.17500E+00  0.00000E+00  0.00000E+00  0.00000E+00    0.19029E+02  0.15128E+02 -0.34157E+02 -0.25953E+01  0.27599E+01  0.12539E+02      982.00
  0.18340E+00  0.56630E+02    0.10000E+00  0.10000E+00 -0.20000E+00  0.00000E+00  0.00000E+00  0.00000E+00    0.19142E+02  0.15237E+02 -0.34379E+02 -0.26304E+01  0.26076E+01  0.12845E+02      982.00
  0.20616E+00  0.57147E+02    0.11250E+00  0.11250E+00 -0.22500E+00  0.00000E+00  0.00000E+00  0.00000E+00    0.19283E+02  0.15331E+02 -0.34614E+02 -0.26498E+01  0.24972E+01  0.13146E+02      982.00
  0.22888E+00  0.57665E+02    0.12500E+00  0.12500E+00 -0.25000E+00  0.00000E+00  0.00000E+00  0.00000E+00    0.19433E+02  0.15418E+02 -0.34851E+02 -0.26586E+01  0.24138E+01  0.13436E+02      982.00
  0.25154E+00  0.58172E+02    0.13750E+00  0.13750E+00 -0.27500E+00  0.00000E+00  0.00000E+00  0.00000E+00    0.19582E+02  0.15503E+02 -0.35085E+02 -0.26573E+01  0.23542E+01  0.13713E+02      982.00
  0.27416E+00  0.58646E+02    0.15000E+00  0.15000E+00 -0.30000E+00  0.00000E+00  0.00000E+00  0.00000E+00    0.19719E+02  0.15582E+02 -0.35301E+02 -0.26505E+01  0.23018E+01  0.13972E+02      982.00
  0.29673E+00  0.59112E+02    0.16250E+00  0.16250E+00 -0.32500E+00  0.00000E+00  0.00000E+00  0.00000E+00    0.19850E+02  0.15667E+02 -0.35517E+02 -0.26309E+01  0.22826E+01  0.14218E+02      982.00
  0.31926E+00  0.59554E+02    0.17500E+00  0.17500E+00 -0.35000E+00  0.00000E+00  0.00000E+00  0.00000E+00    0.19967E+02  0.15754E+02 -0.35721E+02 -0.26036E+01  0.22788E+01  0.14450E+02      982.00
  0.34175E+00  0.59971E+02    0.18750E+00  0.18750E+00 -0.37500E+00  0.00000E+00  0.00000E+00  0.00000E+00    0.20071E+02  0.15843E+02 -0.35913E+02 -0.25697E+01  0.22877E+01  0.14670E+02      982.00
  0.36421E+00  0.60393E+02    0.20000E+00  0.20000E+00 -0.40000E+00  0.00000E+00  0.00000E+00  0.00000E+00    0.20159E+02  0.15941E+02 -0.36099E+02 -0.25278E+01  0.22911E+01  0.14910E+02      982.00
  0.38662E+00  0.60759E+02    0.21250E+00  0.21250E+00 -0.42500E+00  0.00000E+00  0.00000E+00  0.00000E+00    0.20230E+02  0.16037E+02 -0.36267E+02 -0.24791E+01  0.23250E+01  0.15103E+02      982.00
  0.40901E+00  0.61103E+02    0.22500E+00  0.22500E+00 -0.45000E+00  0.00000E+00  0.00000E+00  0.00000E+00    0.20285E+02  0.16137E+02 -0.36421E+02 -0.24305E+01  0.23619E+01  0.15292E+02      982.00
  0.43136E+00  0.61410E+02    0.23750E+00  0.23750E+00 -0.47500E+00  0.00000E+00  0.00000E+00  0.00000E+00    0.20331E+02  0.16227E+02 -0.36558E+02 -0.23932E+01  0.24039E+01  0.15458E+02      982.00
  0.45369E+00  0.61718E+02    0.25000E+00  0.25000E+00 -0.50000E+00  0.00000E+00  0.00000E+00  0.00000E+00    0.20359E+02  0.16330E+02 -0.36690E+02 -0.23463E+01  0.24410E+01  0.15639E+02      982.00
  0.47598E+00  0.62016E+02    0.26250E+00  0.26250E+00 -0.52500E+00  0.00000E+00  0.00000E+00  0.00000E+00    0.20376E+02  0.16438E+02 -0.36814E+02 -0.23014E+01  0.24780E+01  0.15819E+02      982.00
  0.49824E+00  0.62279E+02    0.27500E+00  0.27500E+00 -0.55000E+00  0.00000E+00  0.00000E+00  0.00000E+00    0.20369E+02  0.16551E+02 -0.36920E+02 -0.22623E+01  0.25069E+01  0.15986E+02      982.00
  0.52047E+00  0.62537E+02    0.28750E+00  0.28750E+00 -0.57500E+00  0.00000E+00  0.00000E+00  0.00000E+00    0.20352E+02  0.16669E+02 -0.37020E+02 -0.22293E+01  0.25310E+01  0.16155E+02      982.00
  0.54267E+00  0.62780E+02    0.30000E+00  0.30000E+00 -0.60000E+00  0.00000E+00  0.00000E+00  0.00000E+00    0.20320E+02  0.16792E+02 -0.37112E+02 -0.22045E+01  0.25460E+01  0.16321E+02      982.00
  0.56484E+00  0.63005E+02    0.31250E+00  0.31250E+00 -0.62500E+00  0.00000E+00  0.00000E+00  0.00000E+00    0.20278E+02  0.16916E+02 -0.37194E+02 -0.21879E+01  0.25533E+01  0.16478E+02      982.00
  0.58697E+00  0.63221E+02    0.32500E+00  0.32500E+00 -0.65000E+00  0.00000E+00  0.00000E+00  0.00000E+00    0.20222E+02  0.17048E+02 -0.37270E+02 -0.21826E+01  0.25457E+01  0.16636E+02      982.00
  0.60908E+00  0.63424E+02    0.33750E+00  0.33750E+00 -0.67500E+00  0.00000E+00  0.00000E+00  0.00000E+00    0.20154E+02  0.17185E+02 -0.37339E+02 -0.21872E+01  0.25258E+01  0.16788E+02      982.00
  0.63116E+00  0.63615E+02    0.35000E+00  0.35000E+00 -0.70000E+00  0.00000E+00  0.00000E+00  0.00000E+00    0.20079E+02  0.17324E+02 -0.37403E+02 -0.22003E+01  0.24947E+01  0.16934E+02      982.00
  0.65321E+00  0.63815E+02    0.36250E+00  0.36250E+00 -0.72500E+00  0.00000E+00  0.00000E+00  0.00000E+00    0.20010E+02  0.17461E+02 -0.37470E+02 -0.22149E+01  0.24630E+01  0.17084E+02      982.00
  0.67522E+00  0.63975E+02    0.37500E+00  0.37500E+00 -0.75000E+00  0.00000E+00  0.00000E+00  0.00000E+00    0.19921E+02  0.17602E+02 -0.37522E+02 -0.22381E+01  0.24143E+01  0.17208E+02      982.00
  0.69722E+00  0.64141E+02    0.38750E+00  0.38750E+00 -0.77500E+00  0.00000E+00  0.00000E+00  0.00000E+00    0.19845E+02  0.17734E+02 -0.37578E+02 -0.22559E+01  0.23745E+01  0.17333E+02      982.00
  0.71919E+00  0.64281E+02    0.40000E+00  0.40000E+00 -0.80000E+00  0.00000E+00  0.00000E+00  0.00000E+00    0.19759E+02  0.17866E+02 -0.37625E+02 -0.22788E+01  0.23248E+01  0.17440E+02      982.00
  0.74114E+00  0.64412E+02    0.41250E+00  0.41250E+00 -0.82500E+00  0.00000E+00  0.00000E+00  0.00000E+00    0.19678E+02  0.17992E+02 -0.37670E+02 -0.22999E+01  0.22754E+01  0.17537E+02      982.00
  0.76307E+00  0.64534E+02    0.42500E+00  0.42500E+00 -0.85000E+00  0.00000E+00  0.00000E+00  0.00000E+00    0.19601E+02  0.18112E+02 -0.37712E+02 -0.23177E+01  0.22282E+01  0.17625E+02      982.00
  0.78498E+00  0.64658E+02    0.43750E+00  0.43750E+00 -0.87500E+00  0.00000E+00  0.00000E+00  0.00000E+00    0.19532E+02  0.18225E+02 -0.37757E+02 -0.23357E+01  0.21804E+01  0.17712E+02      982.00
  0.80688E+00  0.64764E+02    0.45000E+00  0.45000E+00 -0.90000E+00  0.00000E+00  0.00000E+00  0.00000E+00    0.19468E+02  0.18330E+02 -0.37798E+02 -0.23457E+01  0.21398E+01  0.17783E+02      982.00
  0.82877E+00  0.64861E+02    0.46250E+00  0.46250E+00 -0.92500E+00  0.00000E+00  0.00000E+00  0.00000E+00    0.19409E+02  0.18427E+02 -0.37836E+02 -0.23514E+01  0.21035E+01  0.17846E+02      982.00
  0.85064E+00  0.64950E+02    0.47500E+00  0.47500E+00 -0.95000E+00  0.00000E+00  0.00000E+00  0.00000E+00    0.19358E+02  0.18514E+02 -0.37872E+02 -0.23561E+01  0.20653E+01  0.17901E+02      982.00
  0.87251E+00  0.64974E+02    0.48750E+00  0.48750E+00 -0.97500E+00  0.00000E+00  0.00000E+00  0.00000E+00    0.19300E+02  0.18579E+02 -0.37879E+02 -0.23488E+01  0.20234E+01  0.17926E+02      982.00
  0.89437E+00  0.65015E+02    0.50000E+00  0.50000E+00 -0.10000E+01  0.00000E+00  0.00000E+00  0.00000E+00    0.19253E+02  0.18641E+02 -0.37894E+02 -0.23382E+01  0.19946E+01  0.17957E+02      982.00
