          Evm          Svm            E11          E22          E33          E23          E13          E12         SDEV11       SDEV22       SDEV33       SDEV23       SDEV13       SDEV12      TEMP
  0.00000E+00  0.56803E+02    0.00000E+00  0.00000E+00  0.00000E+00  0.00000E+00  0.00000E+00  0.00000E+00    0.15576E+02  0.17869E+02 -0.33445E+02 -0.47630E+01  0.12152E+01  0.14530E+02      982.00
  0.22079E-01  0.56710E+02    0.12500E-01  0.12500E-01 -0.25000E-01  0.00000E+00  0.00000E+00  0.00000E+00    0.15734E+02  0.17711E+02 -0.33444E+02 -0.44287E+01  0.14009E+01  0.14511E+02      982.00
  0.44195E-01  0.56776E+02    0.25000E-01  0.25000E-01 -0.50000E-01  0.00000E+00  0.00000E+00  0.00000E+00    0.15870E+02  0.17632E+02 -0.33502E+02 -0.41602E+01  0.15290E+01  0.14570E+02      982.00
  0.66323E-01  0.56979E+02    0.37500E-01  0.37500E-01 -0.75000E-01  0.00000E+00  0.00000E+00  0.00000E+00    0.15997E+02  0.17617E+02 -0.33614E+02 -0.39276E+01  0.16216E+01  0.14699E+02      982.00
  0.88445E-01  0.57291E+02    0.50000E-01  0.50000E-01 -0.10000E+00  0.00000E+00  0.00000E+00  0.00000E+00    0.16122E+02  0.17646E+02 -0.33768E+02 -0.37158E+01  0.16938E+01  0.14888E+02      982.00
  0.11055E+00  0.57675E+02    0.62500E-01  0.62500E-01 -0.12500E+00  0.00000E+00  0.00000E+00  0.00000E+00    0.16241E+02  0.17709E+02 -0.33950E+02 -0.35304E+01  0.17414E+01  0.15111E+02      982.00
  0.13262E+00  0.58108E+02    0.75000E-01  0.75000E-01 -0.15000E+00  0.00000E+00  0.00000E+00  0.00000E+00    0.16358E+02  0.17795E+02 -0.34153E+02 -0.33606E+01  0.17783E+01  0.15352E+02      982.00
  0.15466E+00  0.58574E+02    0.87500E-01  0.87500E-01 -0.17500E+00  0.00000E+00  0.00000E+00  0.00000E+00    0.16473E+02  0.17897E+02 -0.34370E+02 -0.32172E+01  0.17982E+01  0.15607E+02      982.00
  0.17667E+00  0.59043E+02    0.10000E+00  0.10000E+00 -0.20000E+00  0.00000E+00  0.00000E+00  0.00000E+00    0.16585E+02  0.18005E+02 -0.34590E+02 -0.30825E+01  0.18125E+01  0.15855E+02      982.00
  0.19864E+00  0.59525E+02    0.11250E+00  0.11250E+00 -0.22500E+00  0.00000E+00  0.00000E+00  0.00000E+00    0.16698E+02  0.18117E+02 -0.34816E+02 -0.29765E+01  0.18172E+01  0.16103E+02      982.00
  0.22057E+00  0.59998E+02    0.12500E+00  0.12500E+00 -0.25000E+00  0.00000E+00  0.00000E+00  0.00000E+00    0.16811E+02  0.18229E+02 -0.35040E+02 -0.28861E+01  0.18176E+01  0.16339E+02      982.00
  0.24247E+00  0.60441E+02    0.13750E+00  0.13750E+00 -0.27500E+00  0.00000E+00  0.00000E+00  0.00000E+00    0.16921E+02  0.18331E+02 -0.35252E+02 -0.27972E+01  0.18160E+01  0.16554E+02      982.00
  0.26434E+00  0.60873E+02    0.15000E+00  0.15000E+00 -0.30000E+00  0.00000E+00  0.00000E+00  0.00000E+00    0.17032E+02  0.18431E+02 -0.35463E+02 -0.27331E+01  0.18121E+01  0.16755E+02      982.00
  0.28619E+00  0.61279E+02    0.16250E+00  0.16250E+00 -0.32500E+00  0.00000E+00  0.00000E+00  0.00000E+00    0.17142E+02  0.18522E+02 -0.35664E+02 -0.26786E+01  0.18069E+01  0.16936E+02      982.00
  0.30801E+00  0.61653E+02    0.17500E+00  0.17500E+00 -0.35000E+00  0.00000E+00  0.00000E+00  0.00000E+00    0.17251E+02  0.18601E+02 -0.35851E+02 -0.26208E+01  0.18006E+01  0.17103E+02      982.00
  0.32982E+00  0.62003E+02    0.18750E+00  0.18750E+00 -0.37500E+00  0.00000E+00  0.00000E+00  0.00000E+00    0.17358E+02  0.18673E+02 -0.36031E+02 -0.25818E+01  0.17951E+01  0.17246E+02      982.00
  0.35161E+00  0.62324E+02    0.20000E+00  0.20000E+00 -0.40000E+00  0.00000E+00  0.00000E+00  0.00000E+00    0.17463E+02  0.18737E+02 -0.36200E+02 -0.25481E+01  0.17891E+01  0.17373E+02      982.00
  0.37339E+00  0.62626E+02    0.21250E+00  0.21250E+00 -0.42500E+00  0.00000E+00  0.00000E+00  0.00000E+00    0.17571E+02  0.18788E+02 -0.36359E+02 -0.25083E+01  0.17812E+01  0.17494E+02      982.00
  0.39516E+00  0.62894E+02    0.22500E+00  0.22500E+00 -0.45000E+00  0.00000E+00  0.00000E+00  0.00000E+00    0.17672E+02  0.18833E+02 -0.36505E+02 -0.24824E+01  0.17755E+01  0.17591E+02      982.00
  0.41693E+00  0.63138E+02    0.23750E+00  0.23750E+00 -0.47500E+00  0.00000E+00  0.00000E+00  0.00000E+00    0.17769E+02  0.18872E+02 -0.36641E+02 -0.24588E+01  0.17694E+01  0.17674E+02      982.00
  0.43869E+00  0.63361E+02    0.25000E+00  0.25000E+00 -0.50000E+00  0.00000E+00  0.00000E+00  0.00000E+00    0.17865E+02  0.18904E+02 -0.36768E+02 -0.24384E+01  0.17634E+01  0.17748E+02      982.00
  0.46045E+00  0.63566E+02    0.26250E+00  0.26250E+00 -0.52500E+00  0.00000E+00  0.00000E+00  0.00000E+00    0.17957E+02  0.18929E+02 -0.36886E+02 -0.24197E+01  0.17574E+01  0.17811E+02      982.00
  0.48221E+00  0.63720E+02    0.27500E+00  0.27500E+00 -0.55000E+00  0.00000E+00  0.00000E+00  0.00000E+00    0.18034E+02  0.18944E+02 -0.36978E+02 -0.24044E+01  0.17521E+01  0.17857E+02      982.00
  0.50398E+00  0.63895E+02    0.28750E+00  0.28750E+00 -0.57500E+00  0.00000E+00  0.00000E+00  0.00000E+00    0.18122E+02  0.18960E+02 -0.37082E+02 -0.23886E+01  0.17463E+01  0.17907E+02      982.00
  0.52574E+00  0.64070E+02    0.30000E+00  0.30000E+00 -0.60000E+00  0.00000E+00  0.00000E+00  0.00000E+00    0.18222E+02  0.18963E+02 -0.37185E+02 -0.23676E+01  0.17390E+01  0.17960E+02      982.00
  0.54750E+00  0.64215E+02    0.31250E+00  0.31250E+00 -0.62500E+00  0.00000E+00  0.00000E+00  0.00000E+00    0.18305E+02  0.18969E+02 -0.37274E+02 -0.23530E+01  0.17336E+01  0.17996E+02      982.00
  0.56927E+00  0.64346E+02    0.32500E+00  0.32500E+00 -0.65000E+00  0.00000E+00  0.00000E+00  0.00000E+00    0.18384E+02  0.18972E+02 -0.37356E+02 -0.23399E+01  0.17281E+01  0.18027E+02      982.00
  0.59104E+00  0.64467E+02    0.33750E+00  0.33750E+00 -0.67500E+00  0.00000E+00  0.00000E+00  0.00000E+00    0.18461E+02  0.18972E+02 -0.37433E+02 -0.23277E+01  0.17226E+01  0.18055E+02      982.00
  0.61282E+00  0.64579E+02    0.35000E+00  0.35000E+00 -0.70000E+00  0.00000E+00  0.00000E+00  0.00000E+00    0.18535E+02  0.18970E+02 -0.37504E+02 -0.23162E+01  0.17172E+01  0.18079E+02      982.00
  0.63459E+00  0.64681E+02    0.36250E+00  0.36250E+00 -0.72500E+00  0.00000E+00  0.00000E+00  0.00000E+00    0.18606E+02  0.18965E+02 -0.37571E+02 -0.23053E+01  0.17119E+01  0.18100E+02      982.00
  0.65638E+00  0.64776E+02    0.37500E+00  0.37500E+00 -0.75000E+00  0.00000E+00  0.00000E+00  0.00000E+00    0.18675E+02  0.18958E+02 -0.37633E+02 -0.22951E+01  0.17069E+01  0.18118E+02      982.00
  0.67816E+00  0.64864E+02    0.38750E+00  0.38750E+00 -0.77500E+00  0.00000E+00  0.00000E+00  0.00000E+00    0.18741E+02  0.18950E+02 -0.37691E+02 -0.22854E+01  0.17020E+01  0.18134E+02      982.00
  0.69995E+00  0.64945E+02    0.40000E+00  0.40000E+00 -0.80000E+00  0.00000E+00  0.00000E+00  0.00000E+00    0.18805E+02  0.18940E+02 -0.37745E+02 -0.22763E+01  0.16974E+01  0.18148E+02      982.00
  0.72175E+00  0.65019E+02    0.41250E+00  0.41250E+00 -0.82500E+00  0.00000E+00  0.00000E+00  0.00000E+00    0.18867E+02  0.18928E+02 -0.37795E+02 -0.22678E+01  0.16930E+01  0.18161E+02      982.00
  0.74355E+00  0.65089E+02    0.42500E+00  0.42500E+00 -0.85000E+00  0.00000E+00  0.00000E+00  0.00000E+00    0.18926E+02  0.18916E+02 -0.37842E+02 -0.22598E+01  0.16888E+01  0.18172E+02      982.00
  0.76535E+00  0.65130E+02    0.43750E+00  0.43750E+00 -0.87500E+00  0.00000E+00  0.00000E+00  0.00000E+00    0.18969E+02  0.18901E+02 -0.37870E+02 -0.22549E+01  0.16867E+01  0.18177E+02      982.00
  0.78715E+00  0.65203E+02    0.45000E+00  0.45000E+00 -0.90000E+00  0.00000E+00  0.00000E+00  0.00000E+00    0.19048E+02  0.18872E+02 -0.37919E+02 -0.22437E+01  0.16815E+01  0.18189E+02      982.00
  0.80896E+00  0.65261E+02    0.46250E+00  0.46250E+00 -0.92500E+00  0.00000E+00  0.00000E+00  0.00000E+00    0.19103E+02  0.18856E+02 -0.37959E+02 -0.22357E+01  0.16781E+01  0.18197E+02      982.00
  0.83077E+00  0.65312E+02    0.47500E+00  0.47500E+00 -0.95000E+00  0.00000E+00  0.00000E+00  0.00000E+00    0.19154E+02  0.18841E+02 -0.37995E+02 -0.22291E+01  0.16749E+01  0.18204E+02      982.00
  0.85259E+00  0.65361E+02    0.48750E+00  0.48750E+00 -0.97500E+00  0.00000E+00  0.00000E+00  0.00000E+00    0.19204E+02  0.18825E+02 -0.38029E+02 -0.22233E+01  0.16719E+01  0.18210E+02      982.00
  0.87441E+00  0.65370E+02    0.50000E+00  0.50000E+00 -0.10000E+01  0.00000E+00  0.00000E+00  0.00000E+00    0.19187E+02  0.18844E+02 -0.38031E+02 -0.22234E+01  0.16759E+01  0.18216E+02      982.00
