          Evm          Svm            E11          E22          E33          E23          E13          E12         SDEV11       SDEV22       SDEV33       SDEV23       SDEV13       SDEV12      TEMP
  0.00000E+00  0.62452E+02    0.00000E+00  0.00000E+00  0.00000E+00  0.00000E+00  0.00000E+00  0.00000E+00    0.22796E+02  0.17010E+02 -0.39806E+02  0.52478E+01 -0.29790E+01  0.81801E+01      982.00
  0.23902E-01  0.62482E+02    0.12500E-01  0.12500E-01 -0.25000E-01  0.00000E+00  0.00000E+00  0.00000E+00    0.23311E+02  0.16519E+02 -0.39830E+02  0.49318E+01 -0.29693E+01  0.81746E+01      982.00
  0.47807E-01  0.62526E+02    0.25000E-01  0.25000E-01 -0.50000E-01  0.00000E+00  0.00000E+00  0.00000E+00    0.23719E+02  0.16138E+02 -0.39857E+02  0.46146E+01 -0.30434E+01  0.81719E+01      982.00
  0.71711E-01  0.62608E+02    0.37500E-01  0.37500E-01 -0.75000E-01  0.00000E+00  0.00000E+00  0.00000E+00    0.24086E+02  0.15813E+02 -0.39900E+02  0.43266E+01 -0.31429E+01  0.81779E+01      982.00
  0.95610E-01  0.62723E+02    0.50000E-01  0.50000E-01 -0.10000E+00  0.00000E+00  0.00000E+00  0.00000E+00    0.24421E+02  0.15532E+02 -0.39954E+02  0.40744E+01 -0.32438E+01  0.82034E+01      982.00
  0.11950E+00  0.62874E+02    0.62500E-01  0.62500E-01 -0.12500E+00  0.00000E+00  0.00000E+00  0.00000E+00    0.24742E+02  0.15279E+02 -0.40022E+02  0.38606E+01 -0.33360E+01  0.82463E+01      982.00
  0.14337E+00  0.63055E+02    0.75000E-01  0.75000E-01 -0.15000E+00  0.00000E+00  0.00000E+00  0.00000E+00    0.25042E+02  0.15060E+02 -0.40101E+02  0.36803E+01 -0.34211E+01  0.83110E+01      982.00
  0.16722E+00  0.63275E+02    0.87500E-01  0.87500E-01 -0.17500E+00  0.00000E+00  0.00000E+00  0.00000E+00    0.25334E+02  0.14866E+02 -0.40200E+02  0.35318E+01 -0.34975E+01  0.83938E+01      982.00
  0.19104E+00  0.63522E+02    0.10000E+00  0.10000E+00 -0.20000E+00  0.00000E+00  0.00000E+00  0.00000E+00    0.25608E+02  0.14703E+02 -0.40312E+02  0.34098E+01 -0.35700E+01  0.84946E+01      982.00
  0.21484E+00  0.63792E+02    0.11250E+00  0.11250E+00 -0.22500E+00  0.00000E+00  0.00000E+00  0.00000E+00    0.25874E+02  0.14561E+02 -0.40435E+02  0.33121E+01 -0.36375E+01  0.86051E+01      982.00
  0.23861E+00  0.64072E+02    0.12500E+00  0.12500E+00 -0.25000E+00  0.00000E+00  0.00000E+00  0.00000E+00    0.26117E+02  0.14445E+02 -0.40562E+02  0.32337E+01 -0.37029E+01  0.87301E+01      982.00
  0.26235E+00  0.64365E+02    0.13750E+00  0.13750E+00 -0.27500E+00  0.00000E+00  0.00000E+00  0.00000E+00    0.26349E+02  0.14348E+02 -0.40697E+02  0.31739E+01 -0.37642E+01  0.88598E+01      982.00
  0.28606E+00  0.64663E+02    0.15000E+00  0.15000E+00 -0.30000E+00  0.00000E+00  0.00000E+00  0.00000E+00    0.26555E+02  0.14281E+02 -0.40836E+02  0.31283E+01 -0.38248E+01  0.89993E+01      982.00
  0.30974E+00  0.64944E+02    0.16250E+00  0.16250E+00 -0.32500E+00  0.00000E+00  0.00000E+00  0.00000E+00    0.26739E+02  0.14226E+02 -0.40965E+02  0.30964E+01 -0.38799E+01  0.91384E+01      982.00
  0.33340E+00  0.65228E+02    0.17500E+00  0.17500E+00 -0.35000E+00  0.00000E+00  0.00000E+00  0.00000E+00    0.26904E+02  0.14195E+02 -0.41098E+02  0.30754E+01 -0.39314E+01  0.92823E+01      982.00
  0.35702E+00  0.65481E+02    0.18750E+00  0.18750E+00 -0.37500E+00  0.00000E+00  0.00000E+00  0.00000E+00    0.27031E+02  0.14184E+02 -0.41215E+02  0.30632E+01 -0.39758E+01  0.94221E+01      982.00
  0.38063E+00  0.65738E+02    0.20000E+00  0.20000E+00 -0.40000E+00  0.00000E+00  0.00000E+00  0.00000E+00    0.27135E+02  0.14201E+02 -0.41336E+02  0.30632E+01 -0.40215E+01  0.95711E+01      982.00
  0.40421E+00  0.65984E+02    0.21250E+00  0.21250E+00 -0.42500E+00  0.00000E+00  0.00000E+00  0.00000E+00    0.27214E+02  0.14238E+02 -0.41453E+02  0.30724E+01 -0.40629E+01  0.97209E+01      982.00
  0.42776E+00  0.66210E+02    0.22500E+00  0.22500E+00 -0.45000E+00  0.00000E+00  0.00000E+00  0.00000E+00    0.27268E+02  0.14291E+02 -0.41560E+02  0.30901E+01 -0.40977E+01  0.98685E+01      982.00
  0.45130E+00  0.66442E+02    0.23750E+00  0.23750E+00 -0.47500E+00  0.00000E+00  0.00000E+00  0.00000E+00    0.27313E+02  0.14359E+02 -0.41672E+02  0.31178E+01 -0.41302E+01  0.10019E+02      982.00
  0.47482E+00  0.66625E+02    0.25000E+00  0.25000E+00 -0.50000E+00  0.00000E+00  0.00000E+00  0.00000E+00    0.27320E+02  0.14437E+02 -0.41758E+02  0.31470E+01 -0.41489E+01  0.10162E+02      982.00
  0.49833E+00  0.66799E+02    0.26250E+00  0.26250E+00 -0.52500E+00  0.00000E+00  0.00000E+00  0.00000E+00    0.27307E+02  0.14534E+02 -0.41841E+02  0.31802E+01 -0.41619E+01  0.10303E+02      982.00
  0.52181E+00  0.66961E+02    0.27500E+00  0.27500E+00 -0.55000E+00  0.00000E+00  0.00000E+00  0.00000E+00    0.27285E+02  0.14633E+02 -0.41918E+02  0.32197E+01 -0.41694E+01  0.10441E+02      982.00
  0.54529E+00  0.67107E+02    0.28750E+00  0.28750E+00 -0.57500E+00  0.00000E+00  0.00000E+00  0.00000E+00    0.27240E+02  0.14749E+02 -0.41989E+02  0.32592E+01 -0.41699E+01  0.10572E+02      982.00
  0.56875E+00  0.67235E+02    0.30000E+00  0.30000E+00 -0.60000E+00  0.00000E+00  0.00000E+00  0.00000E+00    0.27177E+02  0.14874E+02 -0.42051E+02  0.33003E+01 -0.41672E+01  0.10703E+02      982.00
  0.59221E+00  0.67352E+02    0.31250E+00  0.31250E+00 -0.62500E+00  0.00000E+00  0.00000E+00  0.00000E+00    0.27104E+02  0.15005E+02 -0.42108E+02  0.33434E+01 -0.41601E+01  0.10824E+02      982.00
  0.61565E+00  0.67445E+02    0.32500E+00  0.32500E+00 -0.65000E+00  0.00000E+00  0.00000E+00  0.00000E+00    0.27014E+02  0.15139E+02 -0.42153E+02  0.33853E+01 -0.41482E+01  0.10940E+02      982.00
  0.63909E+00  0.67546E+02    0.33750E+00  0.33750E+00 -0.67500E+00  0.00000E+00  0.00000E+00  0.00000E+00    0.26917E+02  0.15289E+02 -0.42205E+02  0.34258E+01 -0.41334E+01  0.11056E+02      982.00
  0.66252E+00  0.67628E+02    0.35000E+00  0.35000E+00 -0.70000E+00  0.00000E+00  0.00000E+00  0.00000E+00    0.26817E+02  0.15429E+02 -0.42246E+02  0.34657E+01 -0.41170E+01  0.11160E+02      982.00
  0.68595E+00  0.67710E+02    0.36250E+00  0.36250E+00 -0.72500E+00  0.00000E+00  0.00000E+00  0.00000E+00    0.26720E+02  0.15569E+02 -0.42289E+02  0.35061E+01 -0.41003E+01  0.11258E+02      982.00
  0.70937E+00  0.67774E+02    0.37500E+00  0.37500E+00 -0.75000E+00  0.00000E+00  0.00000E+00  0.00000E+00    0.26606E+02  0.15717E+02 -0.42323E+02  0.35432E+01 -0.40802E+01  0.11351E+02      982.00
  0.73279E+00  0.67840E+02    0.38750E+00  0.38750E+00 -0.77500E+00  0.00000E+00  0.00000E+00  0.00000E+00    0.26505E+02  0.15852E+02 -0.42356E+02  0.35788E+01 -0.40626E+01  0.11439E+02      982.00
  0.75620E+00  0.67898E+02    0.40000E+00  0.40000E+00 -0.80000E+00  0.00000E+00  0.00000E+00  0.00000E+00    0.26406E+02  0.15981E+02 -0.42387E+02  0.36131E+01 -0.40439E+01  0.11517E+02      982.00
  0.77961E+00  0.67955E+02    0.41250E+00  0.41250E+00 -0.82500E+00  0.00000E+00  0.00000E+00  0.00000E+00    0.26309E+02  0.16108E+02 -0.42417E+02  0.36475E+01 -0.40264E+01  0.11591E+02      982.00
  0.80302E+00  0.68001E+02    0.42500E+00  0.42500E+00 -0.85000E+00  0.00000E+00  0.00000E+00  0.00000E+00    0.26201E+02  0.16243E+02 -0.42444E+02  0.36790E+01 -0.40029E+01  0.11659E+02      982.00
  0.82642E+00  0.68052E+02    0.43750E+00  0.43750E+00 -0.87500E+00  0.00000E+00  0.00000E+00  0.00000E+00    0.26110E+02  0.16361E+02 -0.42471E+02  0.37083E+01 -0.39858E+01  0.11724E+02      982.00
  0.84983E+00  0.68098E+02    0.45000E+00  0.45000E+00 -0.90000E+00  0.00000E+00  0.00000E+00  0.00000E+00    0.26023E+02  0.16472E+02 -0.42495E+02  0.37373E+01 -0.39701E+01  0.11783E+02      982.00
  0.87323E+00  0.68137E+02    0.46250E+00  0.46250E+00 -0.92500E+00  0.00000E+00  0.00000E+00  0.00000E+00    0.25937E+02  0.16579E+02 -0.42516E+02  0.37632E+01 -0.39537E+01  0.11838E+02      982.00
  0.89663E+00  0.68174E+02    0.47500E+00  0.47500E+00 -0.95000E+00  0.00000E+00  0.00000E+00  0.00000E+00    0.25843E+02  0.16695E+02 -0.42538E+02  0.37929E+01 -0.39311E+01  0.11888E+02      982.00
  0.92003E+00  0.68206E+02    0.48750E+00  0.48750E+00 -0.97500E+00  0.00000E+00  0.00000E+00  0.00000E+00    0.25765E+02  0.16791E+02 -0.42555E+02  0.38167E+01 -0.39175E+01  0.11934E+02      982.00
  0.94342E+00  0.68207E+02    0.50000E+00  0.50000E+00 -0.10000E+01  0.00000E+00  0.00000E+00  0.00000E+00    0.25683E+02  0.16870E+02 -0.42553E+02  0.38289E+01 -0.38919E+01  0.11976E+02      982.00
