          Evm          Svm            E11          E22          E33          E23          E13          E12         SDEV11       SDEV22       SDEV33       SDEV23       SDEV13       SDEV12      TEMP
  0.00000E+00  0.56834E+02    0.00000E+00  0.00000E+00  0.00000E+00  0.00000E+00  0.00000E+00  0.00000E+00    0.14984E+02  0.21230E+02 -0.36215E+02 -0.42379E+01  0.23410E+01  0.77378E+01      982.00
  0.23895E-01  0.56710E+02    0.12500E-01  0.12500E-01 -0.25000E-01  0.00000E+00  0.00000E+00  0.00000E+00    0.15440E+02  0.20730E+02 -0.36169E+02 -0.39648E+01  0.22434E+01  0.79434E+01      982.00
  0.47812E-01  0.56724E+02    0.25000E-01  0.25000E-01 -0.50000E-01  0.00000E+00  0.00000E+00  0.00000E+00    0.15991E+02  0.20203E+02 -0.36195E+02 -0.36737E+01  0.21973E+01  0.81992E+01      982.00
  0.71741E-01  0.56860E+02    0.37500E-01  0.37500E-01 -0.75000E-01  0.00000E+00  0.00000E+00  0.00000E+00    0.16615E+02  0.19661E+02 -0.36277E+02 -0.33667E+01  0.21972E+01  0.84990E+01      982.00
  0.95665E-01  0.57093E+02    0.50000E-01  0.50000E-01 -0.10000E+00  0.00000E+00  0.00000E+00  0.00000E+00    0.17259E+02  0.19135E+02 -0.36394E+02 -0.30771E+01  0.22393E+01  0.88187E+01      982.00
  0.11957E+00  0.57394E+02    0.62500E-01  0.62500E-01 -0.12500E+00  0.00000E+00  0.00000E+00  0.00000E+00    0.17883E+02  0.18649E+02 -0.36532E+02 -0.28235E+01  0.23101E+01  0.91433E+01      982.00
  0.14344E+00  0.57754E+02    0.75000E-01  0.75000E-01 -0.15000E+00  0.00000E+00  0.00000E+00  0.00000E+00    0.18462E+02  0.18227E+02 -0.36689E+02 -0.26146E+01  0.23940E+01  0.94694E+01      982.00
  0.16726E+00  0.58165E+02    0.87500E-01  0.87500E-01 -0.17500E+00  0.00000E+00  0.00000E+00  0.00000E+00    0.18980E+02  0.17886E+02 -0.36865E+02 -0.24514E+01  0.24767E+01  0.97981E+01      982.00
  0.19103E+00  0.58629E+02    0.10000E+00  0.10000E+00 -0.20000E+00  0.00000E+00  0.00000E+00  0.00000E+00    0.19449E+02  0.17613E+02 -0.37062E+02 -0.23233E+01  0.25579E+01  0.10141E+02      982.00
  0.21473E+00  0.59136E+02    0.11250E+00  0.11250E+00 -0.22500E+00  0.00000E+00  0.00000E+00  0.00000E+00    0.19871E+02  0.17402E+02 -0.37273E+02 -0.22324E+01  0.26408E+01  0.10501E+02      982.00
  0.23837E+00  0.59658E+02    0.12500E+00  0.12500E+00 -0.25000E+00  0.00000E+00  0.00000E+00  0.00000E+00    0.20232E+02  0.17252E+02 -0.37484E+02 -0.21889E+01  0.27285E+01  0.10867E+02      982.00
  0.26193E+00  0.60158E+02    0.13750E+00  0.13750E+00 -0.27500E+00  0.00000E+00  0.00000E+00  0.00000E+00    0.20537E+02  0.17139E+02 -0.37676E+02 -0.21811E+01  0.28251E+01  0.11228E+02      982.00
  0.28542E+00  0.60601E+02    0.15000E+00  0.15000E+00 -0.30000E+00  0.00000E+00  0.00000E+00  0.00000E+00    0.20763E+02  0.17077E+02 -0.37841E+02 -0.21830E+01  0.28900E+01  0.11563E+02      982.00
  0.30883E+00  0.61000E+02    0.16250E+00  0.16250E+00 -0.32500E+00  0.00000E+00  0.00000E+00  0.00000E+00    0.20931E+02  0.17059E+02 -0.37990E+02 -0.21593E+01  0.29027E+01  0.11878E+02      982.00
  0.33219E+00  0.61378E+02    0.17500E+00  0.17500E+00 -0.35000E+00  0.00000E+00  0.00000E+00  0.00000E+00    0.21051E+02  0.17084E+02 -0.38135E+02 -0.21095E+01  0.28572E+01  0.12187E+02      982.00
  0.35549E+00  0.61745E+02    0.18750E+00  0.18750E+00 -0.37500E+00  0.00000E+00  0.00000E+00  0.00000E+00    0.21129E+02  0.17145E+02 -0.38275E+02 -0.20405E+01  0.27614E+01  0.12504E+02      982.00
  0.37873E+00  0.62105E+02    0.20000E+00  0.20000E+00 -0.40000E+00  0.00000E+00  0.00000E+00  0.00000E+00    0.21175E+02  0.17232E+02 -0.38407E+02 -0.19695E+01  0.26242E+01  0.12833E+02      982.00
  0.40192E+00  0.62442E+02    0.21250E+00  0.21250E+00 -0.42500E+00  0.00000E+00  0.00000E+00  0.00000E+00    0.21213E+02  0.17319E+02 -0.38532E+02 -0.19112E+01  0.24920E+01  0.13134E+02      982.00
  0.42506E+00  0.62774E+02    0.22500E+00  0.22500E+00 -0.45000E+00  0.00000E+00  0.00000E+00  0.00000E+00    0.21245E+02  0.17401E+02 -0.38646E+02 -0.18515E+01  0.23526E+01  0.13445E+02      982.00
  0.44815E+00  0.63099E+02    0.23750E+00  0.23750E+00 -0.47500E+00  0.00000E+00  0.00000E+00  0.00000E+00    0.21264E+02  0.17488E+02 -0.38752E+02 -0.17946E+01  0.22104E+01  0.13754E+02      982.00
  0.47118E+00  0.63412E+02    0.25000E+00  0.25000E+00 -0.50000E+00  0.00000E+00  0.00000E+00  0.00000E+00    0.21278E+02  0.17572E+02 -0.38850E+02 -0.17471E+01  0.20735E+01  0.14057E+02      982.00
  0.49416E+00  0.63714E+02    0.26250E+00  0.26250E+00 -0.52500E+00  0.00000E+00  0.00000E+00  0.00000E+00    0.21290E+02  0.17648E+02 -0.38939E+02 -0.17095E+01  0.19452E+01  0.14353E+02      982.00
  0.51707E+00  0.64004E+02    0.27500E+00  0.27500E+00 -0.55000E+00  0.00000E+00  0.00000E+00  0.00000E+00    0.21304E+02  0.17715E+02 -0.39019E+02 -0.16814E+01  0.18272E+01  0.14638E+02      982.00
  0.53994E+00  0.64281E+02    0.28750E+00  0.28750E+00 -0.57500E+00  0.00000E+00  0.00000E+00  0.00000E+00    0.21320E+02  0.17772E+02 -0.39092E+02 -0.16620E+01  0.17207E+01  0.14911E+02      982.00
  0.56274E+00  0.64543E+02    0.30000E+00  0.30000E+00 -0.60000E+00  0.00000E+00  0.00000E+00  0.00000E+00    0.21332E+02  0.17826E+02 -0.39158E+02 -0.16486E+01  0.16213E+01  0.15171E+02      982.00
  0.58549E+00  0.64792E+02    0.31250E+00  0.31250E+00 -0.62500E+00  0.00000E+00  0.00000E+00  0.00000E+00    0.21357E+02  0.17859E+02 -0.39217E+02 -0.16426E+01  0.15395E+01  0.15420E+02      982.00
  0.60819E+00  0.65017E+02    0.32500E+00  0.32500E+00 -0.65000E+00  0.00000E+00  0.00000E+00  0.00000E+00    0.21387E+02  0.17878E+02 -0.39265E+02 -0.16431E+01  0.14755E+01  0.15646E+02      982.00
  0.63084E+00  0.65236E+02    0.33750E+00  0.33750E+00 -0.67500E+00  0.00000E+00  0.00000E+00  0.00000E+00    0.21417E+02  0.17895E+02 -0.39312E+02 -0.16412E+01  0.14120E+01  0.15865E+02      982.00
  0.65343E+00  0.65457E+02    0.35000E+00  0.35000E+00 -0.70000E+00  0.00000E+00  0.00000E+00  0.00000E+00    0.21458E+02  0.17900E+02 -0.39358E+02 -0.16412E+01  0.13555E+01  0.16084E+02      982.00
  0.67598E+00  0.65677E+02    0.36250E+00  0.36250E+00 -0.72500E+00  0.00000E+00  0.00000E+00  0.00000E+00    0.21510E+02  0.17892E+02 -0.39401E+02 -0.16443E+01  0.13082E+01  0.16303E+02      982.00
  0.69848E+00  0.65855E+02    0.37500E+00  0.37500E+00 -0.75000E+00  0.00000E+00  0.00000E+00  0.00000E+00    0.21566E+02  0.17868E+02 -0.39434E+02 -0.16509E+01  0.12851E+01  0.16479E+02      982.00
  0.72093E+00  0.66019E+02    0.38750E+00  0.38750E+00 -0.77500E+00  0.00000E+00  0.00000E+00  0.00000E+00    0.21627E+02  0.17835E+02 -0.39462E+02 -0.16580E+01  0.12706E+01  0.16642E+02      982.00
  0.74335E+00  0.66148E+02    0.40000E+00  0.40000E+00 -0.80000E+00  0.00000E+00  0.00000E+00  0.00000E+00    0.21683E+02  0.17802E+02 -0.39485E+02 -0.16625E+01  0.12631E+01  0.16766E+02      982.00
  0.76573E+00  0.66291E+02    0.41250E+00  0.41250E+00 -0.82500E+00  0.00000E+00  0.00000E+00  0.00000E+00    0.21747E+02  0.17762E+02 -0.39509E+02 -0.16714E+01  0.12579E+01  0.16906E+02      982.00
  0.78808E+00  0.66423E+02    0.42500E+00  0.42500E+00 -0.85000E+00  0.00000E+00  0.00000E+00  0.00000E+00    0.21811E+02  0.17719E+02 -0.39530E+02 -0.16808E+01  0.12558E+01  0.17032E+02      982.00
  0.81040E+00  0.66544E+02    0.43750E+00  0.43750E+00 -0.87500E+00  0.00000E+00  0.00000E+00  0.00000E+00    0.21875E+02  0.17674E+02 -0.39549E+02 -0.16910E+01  0.12562E+01  0.17148E+02      982.00
  0.83269E+00  0.66654E+02    0.45000E+00  0.45000E+00 -0.90000E+00  0.00000E+00  0.00000E+00  0.00000E+00    0.21939E+02  0.17628E+02 -0.39567E+02 -0.17021E+01  0.12581E+01  0.17252E+02      982.00
  0.85495E+00  0.66756E+02    0.46250E+00  0.46250E+00 -0.92500E+00  0.00000E+00  0.00000E+00  0.00000E+00    0.22002E+02  0.17581E+02 -0.39584E+02 -0.17140E+01  0.12611E+01  0.17347E+02      982.00
  0.87719E+00  0.66849E+02    0.47500E+00  0.47500E+00 -0.95000E+00  0.00000E+00  0.00000E+00  0.00000E+00    0.22064E+02  0.17534E+02 -0.39599E+02 -0.17266E+01  0.12648E+01  0.17432E+02      982.00
  0.89940E+00  0.66935E+02    0.48750E+00  0.48750E+00 -0.97500E+00  0.00000E+00  0.00000E+00  0.00000E+00    0.22125E+02  0.17487E+02 -0.39612E+02 -0.17398E+01  0.12687E+01  0.17508E+02      982.00
  0.92159E+00  0.67013E+02    0.50000E+00  0.50000E+00 -0.10000E+01  0.00000E+00  0.00000E+00  0.00000E+00    0.22185E+02  0.17441E+02 -0.39625E+02 -0.17534E+01  0.12728E+01  0.17577E+02      982.00
