          Evm          Svm            E11          E22          E33          E23          E13          E12         SDEV11       SDEV22       SDEV33       SDEV23       SDEV13       SDEV12      TEMP
  0.00000E+00  0.58644E+02    0.00000E+00  0.00000E+00  0.00000E+00  0.00000E+00  0.00000E+00  0.00000E+00    0.20788E+02  0.15116E+02 -0.35904E+02  0.58018E+01  0.57066E+01 -0.10260E+02      982.00
  0.22959E-01  0.58797E+02    0.12500E-01  0.12500E-01 -0.25000E-01  0.00000E+00  0.00000E+00  0.00000E+00    0.20657E+02  0.15433E+02 -0.36090E+02  0.56141E+01  0.58639E+01 -0.10138E+02      982.00
  0.45977E-01  0.58987E+02    0.25000E-01  0.25000E-01 -0.50000E-01  0.00000E+00  0.00000E+00  0.00000E+00    0.20588E+02  0.15695E+02 -0.36284E+02  0.54505E+01  0.60022E+01 -0.10036E+02      982.00
  0.69043E-01  0.59208E+02    0.37500E-01  0.37500E-01 -0.75000E-01  0.00000E+00  0.00000E+00  0.00000E+00    0.20558E+02  0.15928E+02 -0.36486E+02  0.53084E+01  0.61127E+01 -0.99597E+01      982.00
  0.92152E-01  0.59469E+02    0.50000E-01  0.50000E-01 -0.10000E+00  0.00000E+00  0.00000E+00  0.00000E+00    0.20580E+02  0.16126E+02 -0.36706E+02  0.51955E+01  0.61842E+01 -0.99094E+01      982.00
  0.11530E+00  0.59760E+02    0.62500E-01  0.62500E-01 -0.12500E+00  0.00000E+00  0.00000E+00  0.00000E+00    0.20643E+02  0.16295E+02 -0.36938E+02  0.50960E+01  0.62245E+01 -0.98819E+01      982.00
  0.13848E+00  0.60089E+02    0.75000E-01  0.75000E-01 -0.15000E+00  0.00000E+00  0.00000E+00  0.00000E+00    0.20749E+02  0.16441E+02 -0.37190E+02  0.50169E+01  0.62324E+01 -0.98771E+01      982.00
  0.16169E+00  0.60447E+02    0.87500E-01  0.87500E-01 -0.17500E+00  0.00000E+00  0.00000E+00  0.00000E+00    0.20887E+02  0.16570E+02 -0.37458E+02  0.49501E+01  0.62171E+01 -0.98908E+01      982.00
  0.18492E+00  0.60838E+02    0.10000E+00  0.10000E+00 -0.20000E+00  0.00000E+00  0.00000E+00  0.00000E+00    0.21049E+02  0.16694E+02 -0.37742E+02  0.48985E+01  0.61832E+01 -0.99200E+01      982.00
  0.20819E+00  0.61246E+02    0.11250E+00  0.11250E+00 -0.22500E+00  0.00000E+00  0.00000E+00  0.00000E+00    0.21233E+02  0.16803E+02 -0.38036E+02  0.48510E+01  0.61371E+01 -0.99597E+01      982.00
  0.23148E+00  0.61668E+02    0.12500E+00  0.12500E+00 -0.25000E+00  0.00000E+00  0.00000E+00  0.00000E+00    0.21440E+02  0.16896E+02 -0.38335E+02  0.48087E+01  0.60823E+01 -0.10008E+02      982.00
  0.25479E+00  0.62106E+02    0.13750E+00  0.13750E+00 -0.27500E+00  0.00000E+00  0.00000E+00  0.00000E+00    0.21652E+02  0.16993E+02 -0.38645E+02  0.47773E+01  0.60187E+01 -0.10059E+02      982.00
  0.27812E+00  0.62551E+02    0.15000E+00  0.15000E+00 -0.30000E+00  0.00000E+00  0.00000E+00  0.00000E+00    0.21870E+02  0.17088E+02 -0.38958E+02  0.47532E+01  0.59501E+01 -0.10110E+02      982.00
  0.30148E+00  0.63007E+02    0.16250E+00  0.16250E+00 -0.32500E+00  0.00000E+00  0.00000E+00  0.00000E+00    0.22102E+02  0.17175E+02 -0.39277E+02  0.47346E+01  0.58778E+01 -0.10161E+02      982.00
  0.32486E+00  0.63448E+02    0.17500E+00  0.17500E+00 -0.35000E+00  0.00000E+00  0.00000E+00  0.00000E+00    0.22320E+02  0.17268E+02 -0.39588E+02  0.47226E+01  0.58032E+01 -0.10204E+02      982.00
  0.34825E+00  0.63877E+02    0.18750E+00  0.18750E+00 -0.37500E+00  0.00000E+00  0.00000E+00  0.00000E+00    0.22532E+02  0.17360E+02 -0.39892E+02  0.47138E+01  0.57258E+01 -0.10239E+02      982.00
  0.37167E+00  0.64312E+02    0.20000E+00  0.20000E+00 -0.40000E+00  0.00000E+00  0.00000E+00  0.00000E+00    0.22755E+02  0.17447E+02 -0.40202E+02  0.47101E+01  0.56421E+01 -0.10270E+02      982.00
  0.39511E+00  0.64714E+02    0.21250E+00  0.21250E+00 -0.42500E+00  0.00000E+00  0.00000E+00  0.00000E+00    0.22956E+02  0.17534E+02 -0.40490E+02  0.47101E+01  0.55649E+01 -0.10291E+02      982.00
  0.41858E+00  0.65099E+02    0.22500E+00  0.22500E+00 -0.45000E+00  0.00000E+00  0.00000E+00  0.00000E+00    0.23147E+02  0.17620E+02 -0.40767E+02  0.47130E+01  0.54886E+01 -0.10305E+02      982.00
  0.44206E+00  0.65464E+02    0.23750E+00  0.23750E+00 -0.47500E+00  0.00000E+00  0.00000E+00  0.00000E+00    0.23330E+02  0.17701E+02 -0.41032E+02  0.47175E+01  0.54129E+01 -0.10312E+02      982.00
  0.46556E+00  0.65810E+02    0.25000E+00  0.25000E+00 -0.50000E+00  0.00000E+00  0.00000E+00  0.00000E+00    0.23506E+02  0.17779E+02 -0.41284E+02  0.47232E+01  0.53379E+01 -0.10313E+02      982.00
  0.48909E+00  0.66135E+02    0.26250E+00  0.26250E+00 -0.52500E+00  0.00000E+00  0.00000E+00  0.00000E+00    0.23673E+02  0.17851E+02 -0.41524E+02  0.47295E+01  0.52637E+01 -0.10306E+02      982.00
  0.51263E+00  0.66441E+02    0.27500E+00  0.27500E+00 -0.55000E+00  0.00000E+00  0.00000E+00  0.00000E+00    0.23833E+02  0.17919E+02 -0.41752E+02  0.47363E+01  0.51903E+01 -0.10294E+02      982.00
  0.53620E+00  0.66717E+02    0.28750E+00  0.28750E+00 -0.57500E+00  0.00000E+00  0.00000E+00  0.00000E+00    0.23978E+02  0.17978E+02 -0.41956E+02  0.47458E+01  0.51272E+01 -0.10281E+02      982.00
  0.55978E+00  0.66986E+02    0.30000E+00  0.30000E+00 -0.60000E+00  0.00000E+00  0.00000E+00  0.00000E+00    0.24125E+02  0.18035E+02 -0.42160E+02  0.47525E+01  0.50555E+01 -0.10258E+02      982.00
  0.58338E+00  0.67237E+02    0.31250E+00  0.31250E+00 -0.62500E+00  0.00000E+00  0.00000E+00  0.00000E+00    0.24265E+02  0.18086E+02 -0.42351E+02  0.47592E+01  0.49843E+01 -0.10231E+02      982.00
  0.60700E+00  0.67471E+02    0.32500E+00  0.32500E+00 -0.65000E+00  0.00000E+00  0.00000E+00  0.00000E+00    0.24400E+02  0.18132E+02 -0.42532E+02  0.47658E+01  0.49138E+01 -0.10200E+02      982.00
  0.63064E+00  0.67688E+02    0.33750E+00  0.33750E+00 -0.67500E+00  0.00000E+00  0.00000E+00  0.00000E+00    0.24530E+02  0.18171E+02 -0.42701E+02  0.47724E+01  0.48441E+01 -0.10166E+02      982.00
  0.65430E+00  0.67890E+02    0.35000E+00  0.35000E+00 -0.70000E+00  0.00000E+00  0.00000E+00  0.00000E+00    0.24655E+02  0.18206E+02 -0.42860E+02  0.47790E+01  0.47752E+01 -0.10128E+02      982.00
  0.67797E+00  0.68078E+02    0.36250E+00  0.36250E+00 -0.72500E+00  0.00000E+00  0.00000E+00  0.00000E+00    0.24775E+02  0.18234E+02 -0.43009E+02  0.47855E+01  0.47071E+01 -0.10088E+02      982.00
  0.70167E+00  0.68253E+02    0.37500E+00  0.37500E+00 -0.75000E+00  0.00000E+00  0.00000E+00  0.00000E+00    0.24893E+02  0.18257E+02 -0.43149E+02  0.47920E+01  0.46399E+01 -0.10046E+02      982.00
  0.72537E+00  0.68415E+02    0.38750E+00  0.38750E+00 -0.77500E+00  0.00000E+00  0.00000E+00  0.00000E+00    0.25003E+02  0.18275E+02 -0.43277E+02  0.47935E+01  0.45864E+01 -0.10009E+02      982.00
  0.74909E+00  0.68566E+02    0.40000E+00  0.40000E+00 -0.80000E+00  0.00000E+00  0.00000E+00  0.00000E+00    0.25115E+02  0.18286E+02 -0.43400E+02  0.47999E+01  0.45216E+01 -0.99631E+01      982.00
  0.77283E+00  0.68706E+02    0.41250E+00  0.41250E+00 -0.82500E+00  0.00000E+00  0.00000E+00  0.00000E+00    0.25224E+02  0.18292E+02 -0.43516E+02  0.48069E+01  0.44570E+01 -0.99157E+01      982.00
  0.79658E+00  0.68836E+02    0.42500E+00  0.42500E+00 -0.85000E+00  0.00000E+00  0.00000E+00  0.00000E+00    0.25331E+02  0.18293E+02 -0.43623E+02  0.48141E+01  0.43930E+01 -0.98670E+01      982.00
  0.82035E+00  0.68956E+02    0.43750E+00  0.43750E+00 -0.87500E+00  0.00000E+00  0.00000E+00  0.00000E+00    0.25435E+02  0.18289E+02 -0.43724E+02  0.48216E+01  0.43299E+01 -0.98169E+01      982.00
  0.84412E+00  0.68996E+02    0.45000E+00  0.45000E+00 -0.90000E+00  0.00000E+00  0.00000E+00  0.00000E+00    0.25515E+02  0.18265E+02 -0.43780E+02  0.48013E+01  0.42476E+01 -0.97517E+01      982.00
  0.86792E+00  0.69036E+02    0.46250E+00  0.46250E+00 -0.92500E+00  0.00000E+00  0.00000E+00  0.00000E+00    0.25592E+02  0.18240E+02 -0.43833E+02  0.47872E+01  0.41703E+01 -0.96880E+01      982.00
  0.89173E+00  0.69072E+02    0.47500E+00  0.47500E+00 -0.95000E+00  0.00000E+00  0.00000E+00  0.00000E+00    0.25669E+02  0.18213E+02 -0.43882E+02  0.47747E+01  0.40948E+01 -0.96259E+01      982.00
  0.91555E+00  0.69112E+02    0.48750E+00  0.48750E+00 -0.97500E+00  0.00000E+00  0.00000E+00  0.00000E+00    0.25750E+02  0.18180E+02 -0.43930E+02  0.47624E+01  0.40301E+01 -0.95664E+01      982.00
  0.93939E+00  0.69143E+02    0.50000E+00  0.50000E+00 -0.10000E+01  0.00000E+00  0.00000E+00  0.00000E+00    0.25828E+02  0.18145E+02 -0.43973E+02  0.47518E+01  0.39587E+01 -0.95063E+01      982.00
