          Evm          Svm            E11          E22          E33          E23          E13          E12         SDEV11       SDEV22       SDEV33       SDEV23       SDEV13       SDEV12      TEMP
  0.00000E+00  0.55805E+02    0.00000E+00  0.00000E+00  0.00000E+00  0.00000E+00  0.00000E+00  0.00000E+00    0.14848E+02  0.20465E+02 -0.35313E+02 -0.34796E+01  0.70062E+00  0.90749E+01      982.00
  0.23729E-01  0.55800E+02    0.12500E-01  0.12500E-01 -0.25000E-01  0.00000E+00  0.00000E+00  0.00000E+00    0.15269E+02  0.20008E+02 -0.35277E+02 -0.33368E+01  0.88976E+00  0.93286E+01      982.00
  0.47437E-01  0.55936E+02    0.25000E-01  0.25000E-01 -0.50000E-01  0.00000E+00  0.00000E+00  0.00000E+00    0.15792E+02  0.19515E+02 -0.35308E+02 -0.31583E+01  0.11082E+01  0.96600E+01      982.00
  0.71107E-01  0.56168E+02    0.37500E-01  0.37500E-01 -0.75000E-01  0.00000E+00  0.00000E+00  0.00000E+00    0.16368E+02  0.19007E+02 -0.35375E+02 -0.29640E+01  0.13367E+01  0.10037E+02      982.00
  0.94725E-01  0.56458E+02    0.50000E-01  0.50000E-01 -0.10000E+00  0.00000E+00  0.00000E+00  0.00000E+00    0.16920E+02  0.18539E+02 -0.35459E+02 -0.27842E+01  0.15483E+01  0.10426E+02      982.00
  0.11828E+00  0.56796E+02    0.62500E-01  0.62500E-01 -0.12500E+00  0.00000E+00  0.00000E+00  0.00000E+00    0.17401E+02  0.18156E+02 -0.35557E+02 -0.26298E+01  0.17273E+01  0.10816E+02      982.00
  0.14175E+00  0.57184E+02    0.75000E-01  0.75000E-01 -0.15000E+00  0.00000E+00  0.00000E+00  0.00000E+00    0.17805E+02  0.17871E+02 -0.35675E+02 -0.24979E+01  0.18695E+01  0.11212E+02      982.00
  0.16515E+00  0.57612E+02    0.87500E-01  0.87500E-01 -0.17500E+00  0.00000E+00  0.00000E+00  0.00000E+00    0.18136E+02  0.17675E+02 -0.35811E+02 -0.23812E+01  0.19765E+01  0.11615E+02      982.00
  0.18846E+00  0.58066E+02    0.10000E+00  0.10000E+00 -0.20000E+00  0.00000E+00  0.00000E+00  0.00000E+00    0.18404E+02  0.17557E+02 -0.35961E+02 -0.22767E+01  0.20500E+01  0.12017E+02      982.00
  0.21168E+00  0.58529E+02    0.11250E+00  0.11250E+00 -0.22500E+00  0.00000E+00  0.00000E+00  0.00000E+00    0.18618E+02  0.17500E+02 -0.36118E+02 -0.21815E+01  0.20932E+01  0.12412E+02      982.00
  0.23482E+00  0.58991E+02    0.12500E+00  0.12500E+00 -0.25000E+00  0.00000E+00  0.00000E+00  0.00000E+00    0.18786E+02  0.17490E+02 -0.36276E+02 -0.20936E+01  0.21098E+01  0.12796E+02      982.00
  0.25788E+00  0.59443E+02    0.13750E+00  0.13750E+00 -0.27500E+00  0.00000E+00  0.00000E+00  0.00000E+00    0.18918E+02  0.17514E+02 -0.36432E+02 -0.20115E+01  0.21028E+01  0.13168E+02      982.00
  0.28087E+00  0.59881E+02    0.15000E+00  0.15000E+00 -0.30000E+00  0.00000E+00  0.00000E+00  0.00000E+00    0.19016E+02  0.17568E+02 -0.36583E+02 -0.19517E+01  0.20707E+01  0.13523E+02      982.00
  0.30378E+00  0.60303E+02    0.16250E+00  0.16250E+00 -0.32500E+00  0.00000E+00  0.00000E+00  0.00000E+00    0.19095E+02  0.17632E+02 -0.36727E+02 -0.18860E+01  0.20254E+01  0.13867E+02      982.00
  0.32662E+00  0.60702E+02    0.17500E+00  0.17500E+00 -0.35000E+00  0.00000E+00  0.00000E+00  0.00000E+00    0.19158E+02  0.17705E+02 -0.36863E+02 -0.18462E+01  0.19685E+01  0.14186E+02      982.00
  0.34939E+00  0.61080E+02    0.18750E+00  0.18750E+00 -0.37500E+00  0.00000E+00  0.00000E+00  0.00000E+00    0.19213E+02  0.17778E+02 -0.36991E+02 -0.18158E+01  0.19061E+01  0.14487E+02      982.00
  0.37210E+00  0.61410E+02    0.20000E+00  0.20000E+00 -0.40000E+00  0.00000E+00  0.00000E+00  0.00000E+00    0.19256E+02  0.17843E+02 -0.37099E+02 -0.17981E+01  0.18463E+01  0.14753E+02      982.00
  0.39476E+00  0.61749E+02    0.21250E+00  0.21250E+00 -0.42500E+00  0.00000E+00  0.00000E+00  0.00000E+00    0.19305E+02  0.17906E+02 -0.37211E+02 -0.17830E+01  0.17831E+01  0.15021E+02      982.00
  0.41735E+00  0.62069E+02    0.22500E+00  0.22500E+00 -0.45000E+00  0.00000E+00  0.00000E+00  0.00000E+00    0.19353E+02  0.17962E+02 -0.37315E+02 -0.17741E+01  0.17230E+01  0.15274E+02      982.00
  0.43990E+00  0.62370E+02    0.23750E+00  0.23750E+00 -0.47500E+00  0.00000E+00  0.00000E+00  0.00000E+00    0.19401E+02  0.18009E+02 -0.37411E+02 -0.17703E+01  0.16679E+01  0.15511E+02      982.00
  0.46239E+00  0.62650E+02    0.25000E+00  0.25000E+00 -0.50000E+00  0.00000E+00  0.00000E+00  0.00000E+00    0.19449E+02  0.18049E+02 -0.37498E+02 -0.17604E+01  0.16126E+01  0.15735E+02      982.00
  0.48484E+00  0.62910E+02    0.26250E+00  0.26250E+00 -0.52500E+00  0.00000E+00  0.00000E+00  0.00000E+00    0.19501E+02  0.18076E+02 -0.37577E+02 -0.17634E+01  0.15711E+01  0.15940E+02      982.00
  0.50724E+00  0.63173E+02    0.27500E+00  0.27500E+00 -0.55000E+00  0.00000E+00  0.00000E+00  0.00000E+00    0.19560E+02  0.18096E+02 -0.37656E+02 -0.17595E+01  0.15260E+01  0.16150E+02      982.00
  0.52959E+00  0.63398E+02    0.28750E+00  0.28750E+00 -0.57500E+00  0.00000E+00  0.00000E+00  0.00000E+00    0.19619E+02  0.18103E+02 -0.37723E+02 -0.17669E+01  0.15002E+01  0.16327E+02      982.00
  0.55190E+00  0.63589E+02    0.30000E+00  0.30000E+00 -0.60000E+00  0.00000E+00  0.00000E+00  0.00000E+00    0.19674E+02  0.18104E+02 -0.37778E+02 -0.17932E+01  0.14951E+01  0.16474E+02      982.00
  0.57418E+00  0.63785E+02    0.31250E+00  0.31250E+00 -0.62500E+00  0.00000E+00  0.00000E+00  0.00000E+00    0.19737E+02  0.18098E+02 -0.37834E+02 -0.17991E+01  0.14803E+01  0.16628E+02      982.00
  0.59642E+00  0.63969E+02    0.32500E+00  0.32500E+00 -0.65000E+00  0.00000E+00  0.00000E+00  0.00000E+00    0.19814E+02  0.18074E+02 -0.37887E+02 -0.17826E+01  0.14580E+01  0.16774E+02      982.00
  0.61863E+00  0.64134E+02    0.33750E+00  0.33750E+00 -0.67500E+00  0.00000E+00  0.00000E+00  0.00000E+00    0.19882E+02  0.18052E+02 -0.37934E+02 -0.17916E+01  0.14547E+01  0.16901E+02      982.00
  0.64082E+00  0.64284E+02    0.35000E+00  0.35000E+00 -0.70000E+00  0.00000E+00  0.00000E+00  0.00000E+00    0.19950E+02  0.18026E+02 -0.37976E+02 -0.18015E+01  0.14551E+01  0.17016E+02      982.00
  0.66297E+00  0.64421E+02    0.36250E+00  0.36250E+00 -0.72500E+00  0.00000E+00  0.00000E+00  0.00000E+00    0.20018E+02  0.17997E+02 -0.38015E+02 -0.18122E+01  0.14572E+01  0.17120E+02      982.00
  0.68510E+00  0.64541E+02    0.37500E+00  0.37500E+00 -0.75000E+00  0.00000E+00  0.00000E+00  0.00000E+00    0.20084E+02  0.17962E+02 -0.38046E+02 -0.18252E+01  0.14594E+01  0.17212E+02      982.00
  0.70720E+00  0.64662E+02    0.38750E+00  0.38750E+00 -0.77500E+00  0.00000E+00  0.00000E+00  0.00000E+00    0.20152E+02  0.17930E+02 -0.38083E+02 -0.18354E+01  0.14639E+01  0.17300E+02      982.00
  0.72929E+00  0.64765E+02    0.40000E+00  0.40000E+00 -0.80000E+00  0.00000E+00  0.00000E+00  0.00000E+00    0.20193E+02  0.17917E+02 -0.38110E+02 -0.18549E+01  0.14703E+01  0.17379E+02      982.00
  0.75135E+00  0.64865E+02    0.41250E+00  0.41250E+00 -0.82500E+00  0.00000E+00  0.00000E+00  0.00000E+00    0.20258E+02  0.17880E+02 -0.38138E+02 -0.18667E+01  0.14731E+01  0.17450E+02      982.00
  0.77340E+00  0.64927E+02    0.42500E+00  0.42500E+00 -0.85000E+00  0.00000E+00  0.00000E+00  0.00000E+00    0.20319E+02  0.17839E+02 -0.38158E+02 -0.18757E+01  0.14749E+01  0.17490E+02      982.00
  0.79544E+00  0.65015E+02    0.43750E+00  0.43750E+00 -0.87500E+00  0.00000E+00  0.00000E+00  0.00000E+00    0.20383E+02  0.17801E+02 -0.38184E+02 -0.18891E+01  0.14778E+01  0.17551E+02      982.00
  0.81747E+00  0.65094E+02    0.45000E+00  0.45000E+00 -0.90000E+00  0.00000E+00  0.00000E+00  0.00000E+00    0.20445E+02  0.17763E+02 -0.38208E+02 -0.19028E+01  0.14805E+01  0.17605E+02      982.00
  0.83948E+00  0.65167E+02    0.46250E+00  0.46250E+00 -0.92500E+00  0.00000E+00  0.00000E+00  0.00000E+00    0.20505E+02  0.17725E+02 -0.38230E+02 -0.19168E+01  0.14829E+01  0.17653E+02      982.00
  0.86148E+00  0.65234E+02    0.47500E+00  0.47500E+00 -0.95000E+00  0.00000E+00  0.00000E+00  0.00000E+00    0.20564E+02  0.17687E+02 -0.38250E+02 -0.19309E+01  0.14850E+01  0.17697E+02      982.00
  0.88347E+00  0.65266E+02    0.48750E+00  0.48750E+00 -0.97500E+00  0.00000E+00  0.00000E+00  0.00000E+00    0.20650E+02  0.17604E+02 -0.38253E+02 -0.19410E+01  0.14807E+01  0.17723E+02      982.00
  0.90544E+00  0.65284E+02    0.50000E+00  0.50000E+00 -0.10000E+01  0.00000E+00  0.00000E+00  0.00000E+00    0.20693E+02  0.17556E+02 -0.38249E+02 -0.19529E+01  0.14801E+01  0.17748E+02      982.00
