          Evm          Svm            E11          E22          E33          E23          E13          E12         SDEV11       SDEV22       SDEV33       SDEV23       SDEV13       SDEV12      TEMP
  0.00000E+00  0.59846E+02    0.00000E+00  0.00000E+00  0.00000E+00  0.00000E+00  0.00000E+00  0.00000E+00    0.22141E+02  0.14960E+02 -0.37101E+02 -0.13928E+01  0.47175E+01  0.11154E+02      982.00
  0.23248E-01  0.59908E+02    0.12500E-01  0.12500E-01 -0.25000E-01  0.00000E+00  0.00000E+00  0.00000E+00    0.21628E+02  0.15506E+02 -0.37134E+02 -0.14227E+01  0.42811E+01  0.11507E+02      982.00
  0.46492E-01  0.59995E+02    0.25000E-01  0.25000E-01 -0.50000E-01  0.00000E+00  0.00000E+00  0.00000E+00    0.21171E+02  0.15996E+02 -0.37167E+02 -0.14713E+01  0.39331E+01  0.11808E+02      982.00
  0.69723E-01  0.60118E+02    0.37500E-01  0.37500E-01 -0.75000E-01  0.00000E+00  0.00000E+00  0.00000E+00    0.20765E+02  0.16445E+02 -0.37210E+02 -0.15459E+01  0.36498E+01  0.12080E+02      982.00
  0.92933E-01  0.60296E+02    0.50000E-01  0.50000E-01 -0.10000E+00  0.00000E+00  0.00000E+00  0.00000E+00    0.20422E+02  0.16850E+02 -0.37272E+02 -0.16384E+01  0.34227E+01  0.12343E+02      982.00
  0.11611E+00  0.60535E+02    0.62500E-01  0.62500E-01 -0.12500E+00  0.00000E+00  0.00000E+00  0.00000E+00    0.20139E+02  0.17221E+02 -0.37360E+02 -0.17434E+01  0.32397E+01  0.12609E+02      982.00
  0.13926E+00  0.60833E+02    0.75000E-01  0.75000E-01 -0.15000E+00  0.00000E+00  0.00000E+00  0.00000E+00    0.19920E+02  0.17553E+02 -0.37473E+02 -0.18511E+01  0.30994E+01  0.12882E+02      982.00
  0.16236E+00  0.61181E+02    0.87500E-01  0.87500E-01 -0.17500E+00  0.00000E+00  0.00000E+00  0.00000E+00    0.19744E+02  0.17861E+02 -0.37606E+02 -0.19678E+01  0.29919E+01  0.13167E+02      982.00
  0.18541E+00  0.61560E+02    0.10000E+00  0.10000E+00 -0.20000E+00  0.00000E+00  0.00000E+00  0.00000E+00    0.19612E+02  0.18134E+02 -0.37747E+02 -0.20921E+01  0.29260E+01  0.13458E+02      982.00
  0.20840E+00  0.61934E+02    0.11250E+00  0.11250E+00 -0.22500E+00  0.00000E+00  0.00000E+00  0.00000E+00    0.19501E+02  0.18378E+02 -0.37879E+02 -0.22342E+01  0.28965E+01  0.13741E+02      982.00
  0.23134E+00  0.62262E+02    0.12500E+00  0.12500E+00 -0.25000E+00  0.00000E+00  0.00000E+00  0.00000E+00    0.19410E+02  0.18576E+02 -0.37986E+02 -0.23753E+01  0.28906E+01  0.13993E+02      982.00
  0.25422E+00  0.62544E+02    0.13750E+00  0.13750E+00 -0.27500E+00  0.00000E+00  0.00000E+00  0.00000E+00    0.19343E+02  0.18733E+02 -0.38076E+02 -0.24817E+01  0.28800E+01  0.14213E+02      982.00
  0.27704E+00  0.62799E+02    0.15000E+00  0.15000E+00 -0.30000E+00  0.00000E+00  0.00000E+00  0.00000E+00    0.19295E+02  0.18865E+02 -0.38160E+02 -0.25403E+01  0.28463E+01  0.14415E+02      982.00
  0.29983E+00  0.63047E+02    0.16250E+00  0.16250E+00 -0.32500E+00  0.00000E+00  0.00000E+00  0.00000E+00    0.19264E+02  0.18982E+02 -0.38246E+02 -0.25542E+01  0.27894E+01  0.14615E+02      982.00
  0.32258E+00  0.63296E+02    0.17500E+00  0.17500E+00 -0.35000E+00  0.00000E+00  0.00000E+00  0.00000E+00    0.19250E+02  0.19084E+02 -0.38334E+02 -0.25310E+01  0.27179E+01  0.14816E+02      982.00
  0.34529E+00  0.63542E+02    0.18750E+00  0.18750E+00 -0.37500E+00  0.00000E+00  0.00000E+00  0.00000E+00    0.19236E+02  0.19185E+02 -0.38421E+02 -0.24884E+01  0.26319E+01  0.15021E+02      982.00
  0.36797E+00  0.63785E+02    0.20000E+00  0.20000E+00 -0.40000E+00  0.00000E+00  0.00000E+00  0.00000E+00    0.19231E+02  0.19274E+02 -0.38504E+02 -0.24285E+01  0.25420E+01  0.15227E+02      982.00
  0.39060E+00  0.64025E+02    0.21250E+00  0.21250E+00 -0.42500E+00  0.00000E+00  0.00000E+00  0.00000E+00    0.19225E+02  0.19360E+02 -0.38585E+02 -0.23619E+01  0.24492E+01  0.15434E+02      982.00
  0.41320E+00  0.64255E+02    0.22500E+00  0.22500E+00 -0.45000E+00  0.00000E+00  0.00000E+00  0.00000E+00    0.19219E+02  0.19439E+02 -0.38659E+02 -0.22929E+01  0.23586E+01  0.15638E+02      982.00
  0.43576E+00  0.64479E+02    0.23750E+00  0.23750E+00 -0.47500E+00  0.00000E+00  0.00000E+00  0.00000E+00    0.19206E+02  0.19522E+02 -0.38729E+02 -0.22282E+01  0.22691E+01  0.15836E+02      982.00
  0.45829E+00  0.64692E+02    0.25000E+00  0.25000E+00 -0.50000E+00  0.00000E+00  0.00000E+00  0.00000E+00    0.19197E+02  0.19595E+02 -0.38792E+02 -0.21647E+01  0.21878E+01  0.16028E+02      982.00
  0.48078E+00  0.64896E+02    0.26250E+00  0.26250E+00 -0.52500E+00  0.00000E+00  0.00000E+00  0.00000E+00    0.19188E+02  0.19663E+02 -0.38851E+02 -0.21062E+01  0.21133E+01  0.16212E+02      982.00
  0.50323E+00  0.65090E+02    0.27500E+00  0.27500E+00 -0.55000E+00  0.00000E+00  0.00000E+00  0.00000E+00    0.19178E+02  0.19728E+02 -0.38906E+02 -0.20536E+01  0.20458E+01  0.16386E+02      982.00
  0.52564E+00  0.65271E+02    0.28750E+00  0.28750E+00 -0.57500E+00  0.00000E+00  0.00000E+00  0.00000E+00    0.19161E+02  0.19796E+02 -0.38957E+02 -0.20110E+01  0.19847E+01  0.16546E+02      982.00
  0.54802E+00  0.65446E+02    0.30000E+00  0.30000E+00 -0.60000E+00  0.00000E+00  0.00000E+00  0.00000E+00    0.19152E+02  0.19855E+02 -0.39007E+02 -0.19703E+01  0.19308E+01  0.16699E+02      982.00
  0.57037E+00  0.65607E+02    0.31250E+00  0.31250E+00 -0.62500E+00  0.00000E+00  0.00000E+00  0.00000E+00    0.19142E+02  0.19909E+02 -0.39051E+02 -0.19355E+01  0.18834E+01  0.16840E+02      982.00
  0.59269E+00  0.65757E+02    0.32500E+00  0.32500E+00 -0.65000E+00  0.00000E+00  0.00000E+00  0.00000E+00    0.19125E+02  0.19969E+02 -0.39093E+02 -0.19051E+01  0.18359E+01  0.16968E+02      982.00
  0.61499E+00  0.65899E+02    0.33750E+00  0.33750E+00 -0.67500E+00  0.00000E+00  0.00000E+00  0.00000E+00    0.19116E+02  0.20017E+02 -0.39133E+02 -0.18804E+01  0.17998E+01  0.17089E+02      982.00
  0.63726E+00  0.66025E+02    0.35000E+00  0.35000E+00 -0.70000E+00  0.00000E+00  0.00000E+00  0.00000E+00    0.19111E+02  0.20057E+02 -0.39168E+02 -0.18628E+01  0.17730E+01  0.17194E+02      982.00
  0.65950E+00  0.66149E+02    0.36250E+00  0.36250E+00 -0.72500E+00  0.00000E+00  0.00000E+00  0.00000E+00    0.19106E+02  0.20098E+02 -0.39204E+02 -0.18451E+01  0.17458E+01  0.17296E+02      982.00
  0.68173E+00  0.66263E+02    0.37500E+00  0.37500E+00 -0.75000E+00  0.00000E+00  0.00000E+00  0.00000E+00    0.19103E+02  0.20133E+02 -0.39235E+02 -0.18324E+01  0.17257E+01  0.17390E+02      982.00
  0.70393E+00  0.66371E+02    0.38750E+00  0.38750E+00 -0.77500E+00  0.00000E+00  0.00000E+00  0.00000E+00    0.19100E+02  0.20167E+02 -0.39267E+02 -0.18208E+01  0.17052E+01  0.17477E+02      982.00
  0.72612E+00  0.66454E+02    0.40000E+00  0.40000E+00 -0.80000E+00  0.00000E+00  0.00000E+00  0.00000E+00    0.19091E+02  0.20203E+02 -0.39294E+02 -0.18109E+01  0.16821E+01  0.17540E+02      982.00
  0.74829E+00  0.66552E+02    0.41250E+00  0.41250E+00 -0.82500E+00  0.00000E+00  0.00000E+00  0.00000E+00    0.19091E+02  0.20233E+02 -0.39323E+02 -0.18041E+01  0.16668E+01  0.17615E+02      982.00
  0.77045E+00  0.66640E+02    0.42500E+00  0.42500E+00 -0.85000E+00  0.00000E+00  0.00000E+00  0.00000E+00    0.19092E+02  0.20258E+02 -0.39350E+02 -0.17991E+01  0.16540E+01  0.17683E+02      982.00
  0.79259E+00  0.66723E+02    0.43750E+00  0.43750E+00 -0.87500E+00  0.00000E+00  0.00000E+00  0.00000E+00    0.19094E+02  0.20281E+02 -0.39376E+02 -0.17956E+01  0.16431E+01  0.17745E+02      982.00
  0.81472E+00  0.66809E+02    0.45000E+00  0.45000E+00 -0.90000E+00  0.00000E+00  0.00000E+00  0.00000E+00    0.19088E+02  0.20316E+02 -0.39403E+02 -0.17884E+01  0.16191E+01  0.17809E+02      982.00
  0.83684E+00  0.66880E+02    0.46250E+00  0.46250E+00 -0.92500E+00  0.00000E+00  0.00000E+00  0.00000E+00    0.19091E+02  0.20335E+02 -0.39426E+02 -0.17891E+01  0.16107E+01  0.17862E+02      982.00
  0.85895E+00  0.66946E+02    0.47500E+00  0.47500E+00 -0.95000E+00  0.00000E+00  0.00000E+00  0.00000E+00    0.19097E+02  0.20349E+02 -0.39446E+02 -0.17902E+01  0.16049E+01  0.17909E+02      982.00
  0.88104E+00  0.67007E+02    0.48750E+00  0.48750E+00 -0.97500E+00  0.00000E+00  0.00000E+00  0.00000E+00    0.19105E+02  0.20361E+02 -0.39466E+02 -0.17919E+01  0.16006E+01  0.17953E+02      982.00
  0.90313E+00  0.67088E+02    0.50000E+00  0.50000E+00 -0.10000E+01  0.00000E+00  0.00000E+00  0.00000E+00    0.19112E+02  0.20376E+02 -0.39488E+02 -0.17957E+01  0.15919E+01  0.18017E+02      982.00
