          Evm          Svm            E11          E22          E33          E23          E13          E12         SDEV11       SDEV22       SDEV33       SDEV23       SDEV13       SDEV12      TEMP
  0.00000E+00  0.54683E+02    0.00000E+00  0.00000E+00  0.00000E+00  0.00000E+00  0.00000E+00  0.00000E+00    0.14262E+02  0.19068E+02 -0.33330E+02 -0.43596E+01  0.18768E+01  0.11631E+02      982.00
  0.22857E-01  0.54623E+02    0.12500E-01  0.12500E-01 -0.25000E-01  0.00000E+00  0.00000E+00  0.00000E+00    0.14525E+02  0.18804E+02 -0.33329E+02 -0.39268E+01  0.20479E+01  0.11714E+02      982.00
  0.45738E-01  0.54635E+02    0.25000E-01  0.25000E-01 -0.50000E-01  0.00000E+00  0.00000E+00  0.00000E+00    0.14808E+02  0.18544E+02 -0.33352E+02 -0.35290E+01  0.21946E+01  0.11830E+02      982.00
  0.68630E-01  0.54747E+02    0.37500E-01  0.37500E-01 -0.75000E-01  0.00000E+00  0.00000E+00  0.00000E+00    0.15077E+02  0.18333E+02 -0.33410E+02 -0.31822E+01  0.23097E+01  0.11991E+02      982.00
  0.91515E-01  0.54983E+02    0.50000E-01  0.50000E-01 -0.10000E+00  0.00000E+00  0.00000E+00  0.00000E+00    0.15320E+02  0.18197E+02 -0.33517E+02 -0.28801E+01  0.24020E+01  0.12209E+02      982.00
  0.11437E+00  0.55341E+02    0.62500E-01  0.62500E-01 -0.12500E+00  0.00000E+00  0.00000E+00  0.00000E+00    0.15528E+02  0.18148E+02 -0.33676E+02 -0.26241E+01  0.24745E+01  0.12474E+02      982.00
  0.13719E+00  0.55787E+02    0.75000E-01  0.75000E-01 -0.15000E+00  0.00000E+00  0.00000E+00  0.00000E+00    0.15711E+02  0.18165E+02 -0.33876E+02 -0.24057E+01  0.25308E+01  0.12768E+02      982.00
  0.15997E+00  0.56286E+02    0.87500E-01  0.87500E-01 -0.17500E+00  0.00000E+00  0.00000E+00  0.00000E+00    0.15876E+02  0.18225E+02 -0.34102E+02 -0.22136E+01  0.25731E+01  0.13075E+02      982.00
  0.18269E+00  0.56808E+02    0.10000E+00  0.10000E+00 -0.20000E+00  0.00000E+00  0.00000E+00  0.00000E+00    0.16028E+02  0.18310E+02 -0.34338E+02 -0.20436E+01  0.26037E+01  0.13383E+02      982.00
  0.20535E+00  0.57347E+02    0.11250E+00  0.11250E+00 -0.22500E+00  0.00000E+00  0.00000E+00  0.00000E+00    0.16171E+02  0.18416E+02 -0.34586E+02 -0.19148E+01  0.26209E+01  0.13684E+02      982.00
  0.22797E+00  0.57884E+02    0.12500E+00  0.12500E+00 -0.25000E+00  0.00000E+00  0.00000E+00  0.00000E+00    0.16309E+02  0.18527E+02 -0.34836E+02 -0.18118E+01  0.26267E+01  0.13974E+02      982.00
  0.25054E+00  0.58408E+02    0.13750E+00  0.13750E+00 -0.27500E+00  0.00000E+00  0.00000E+00  0.00000E+00    0.16445E+02  0.18637E+02 -0.35082E+02 -0.17321E+01  0.26218E+01  0.14248E+02      982.00
  0.27306E+00  0.58898E+02    0.15000E+00  0.15000E+00 -0.30000E+00  0.00000E+00  0.00000E+00  0.00000E+00    0.16577E+02  0.18735E+02 -0.35312E+02 -0.16573E+01  0.26083E+01  0.14506E+02      982.00
  0.29554E+00  0.59376E+02    0.16250E+00  0.16250E+00 -0.32500E+00  0.00000E+00  0.00000E+00  0.00000E+00    0.16707E+02  0.18833E+02 -0.35540E+02 -0.16185E+01  0.25829E+01  0.14745E+02      982.00
  0.31799E+00  0.59829E+02    0.17500E+00  0.17500E+00 -0.35000E+00  0.00000E+00  0.00000E+00  0.00000E+00    0.16834E+02  0.18924E+02 -0.35758E+02 -0.15958E+01  0.25485E+01  0.14968E+02      982.00
  0.34040E+00  0.60255E+02    0.18750E+00  0.18750E+00 -0.37500E+00  0.00000E+00  0.00000E+00  0.00000E+00    0.16958E+02  0.19005E+02 -0.35964E+02 -0.15868E+01  0.25060E+01  0.15177E+02      982.00
  0.36279E+00  0.60656E+02    0.20000E+00  0.20000E+00 -0.40000E+00  0.00000E+00  0.00000E+00  0.00000E+00    0.17079E+02  0.19079E+02 -0.36157E+02 -0.15896E+01  0.24562E+01  0.15373E+02      982.00
  0.38514E+00  0.61031E+02    0.21250E+00  0.21250E+00 -0.42500E+00  0.00000E+00  0.00000E+00  0.00000E+00    0.17198E+02  0.19137E+02 -0.36335E+02 -0.15923E+01  0.23970E+01  0.15563E+02      982.00
  0.40746E+00  0.61384E+02    0.22500E+00  0.22500E+00 -0.45000E+00  0.00000E+00  0.00000E+00  0.00000E+00    0.17310E+02  0.19194E+02 -0.36505E+02 -0.16150E+01  0.23349E+01  0.15736E+02      982.00
  0.42977E+00  0.61716E+02    0.23750E+00  0.23750E+00 -0.47500E+00  0.00000E+00  0.00000E+00  0.00000E+00    0.17418E+02  0.19244E+02 -0.36662E+02 -0.16441E+01  0.22689E+01  0.15901E+02      982.00
  0.45204E+00  0.62028E+02    0.25000E+00  0.25000E+00 -0.50000E+00  0.00000E+00  0.00000E+00  0.00000E+00    0.17522E+02  0.19287E+02 -0.36809E+02 -0.16780E+01  0.22005E+01  0.16060E+02      982.00
  0.47430E+00  0.62319E+02    0.26250E+00  0.26250E+00 -0.52500E+00  0.00000E+00  0.00000E+00  0.00000E+00    0.17620E+02  0.19322E+02 -0.36942E+02 -0.17139E+01  0.21312E+01  0.16210E+02      982.00
  0.49653E+00  0.62596E+02    0.27500E+00  0.27500E+00 -0.55000E+00  0.00000E+00  0.00000E+00  0.00000E+00    0.17716E+02  0.19352E+02 -0.37068E+02 -0.17531E+01  0.20622E+01  0.16357E+02      982.00
  0.51873E+00  0.62856E+02    0.28750E+00  0.28750E+00 -0.57500E+00  0.00000E+00  0.00000E+00  0.00000E+00    0.17807E+02  0.19376E+02 -0.37183E+02 -0.17925E+01  0.19952E+01  0.16499E+02      982.00
  0.54092E+00  0.63101E+02    0.30000E+00  0.30000E+00 -0.60000E+00  0.00000E+00  0.00000E+00  0.00000E+00    0.17896E+02  0.19394E+02 -0.37289E+02 -0.18308E+01  0.19319E+01  0.16635E+02      982.00
  0.56308E+00  0.63331E+02    0.31250E+00  0.31250E+00 -0.62500E+00  0.00000E+00  0.00000E+00  0.00000E+00    0.17976E+02  0.19412E+02 -0.37388E+02 -0.18698E+01  0.18825E+01  0.16764E+02      982.00
  0.58521E+00  0.63548E+02    0.32500E+00  0.32500E+00 -0.65000E+00  0.00000E+00  0.00000E+00  0.00000E+00    0.18059E+02  0.19418E+02 -0.37476E+02 -0.19018E+01  0.18302E+01  0.16892E+02      982.00
  0.60733E+00  0.63751E+02    0.33750E+00  0.33750E+00 -0.67500E+00  0.00000E+00  0.00000E+00  0.00000E+00    0.18140E+02  0.19417E+02 -0.37558E+02 -0.19299E+01  0.17846E+01  0.17014E+02      982.00
  0.62942E+00  0.63940E+02    0.35000E+00  0.35000E+00 -0.70000E+00  0.00000E+00  0.00000E+00  0.00000E+00    0.18220E+02  0.19411E+02 -0.37631E+02 -0.19536E+01  0.17463E+01  0.17131E+02      982.00
  0.65149E+00  0.64117E+02    0.36250E+00  0.36250E+00 -0.72500E+00  0.00000E+00  0.00000E+00  0.00000E+00    0.18312E+02  0.19386E+02 -0.37698E+02 -0.19727E+01  0.17023E+01  0.17245E+02      982.00
  0.67354E+00  0.64279E+02    0.37500E+00  0.37500E+00 -0.75000E+00  0.00000E+00  0.00000E+00  0.00000E+00    0.18390E+02  0.19369E+02 -0.37759E+02 -0.19877E+01  0.16794E+01  0.17348E+02      982.00
  0.69557E+00  0.64403E+02    0.38750E+00  0.38750E+00 -0.77500E+00  0.00000E+00  0.00000E+00  0.00000E+00    0.18448E+02  0.19357E+02 -0.37805E+02 -0.19989E+01  0.16719E+01  0.17427E+02      982.00
  0.71758E+00  0.64544E+02    0.40000E+00  0.40000E+00 -0.80000E+00  0.00000E+00  0.00000E+00  0.00000E+00    0.18526E+02  0.19330E+02 -0.37857E+02 -0.20063E+01  0.16605E+01  0.17517E+02      982.00
  0.73958E+00  0.64674E+02    0.41250E+00  0.41250E+00 -0.82500E+00  0.00000E+00  0.00000E+00  0.00000E+00    0.18604E+02  0.19300E+02 -0.37905E+02 -0.20114E+01  0.16533E+01  0.17601E+02      982.00
  0.76155E+00  0.64793E+02    0.42500E+00  0.42500E+00 -0.85000E+00  0.00000E+00  0.00000E+00  0.00000E+00    0.18682E+02  0.19266E+02 -0.37948E+02 -0.20148E+01  0.16494E+01  0.17677E+02      982.00
  0.78352E+00  0.64902E+02    0.43750E+00  0.43750E+00 -0.87500E+00  0.00000E+00  0.00000E+00  0.00000E+00    0.18759E+02  0.19229E+02 -0.37989E+02 -0.20172E+01  0.16479E+01  0.17746E+02      982.00
  0.80547E+00  0.64968E+02    0.45000E+00  0.45000E+00 -0.90000E+00  0.00000E+00  0.00000E+00  0.00000E+00    0.18832E+02  0.19183E+02 -0.38014E+02 -0.20150E+01  0.16474E+01  0.17785E+02      982.00
  0.82741E+00  0.65063E+02    0.46250E+00  0.46250E+00 -0.92500E+00  0.00000E+00  0.00000E+00  0.00000E+00    0.18908E+02  0.19142E+02 -0.38050E+02 -0.20174E+01  0.16486E+01  0.17843E+02      982.00
  0.84934E+00  0.65105E+02    0.47500E+00  0.47500E+00 -0.95000E+00  0.00000E+00  0.00000E+00  0.00000E+00    0.18986E+02  0.19077E+02 -0.38062E+02 -0.20087E+01  0.16448E+01  0.17877E+02      982.00
  0.87126E+00  0.65168E+02    0.48750E+00  0.48750E+00 -0.97500E+00  0.00000E+00  0.00000E+00  0.00000E+00    0.19083E+02  0.18997E+02 -0.38080E+02 -0.20039E+01  0.16408E+01  0.17926E+02      982.00
  0.89318E+00  0.65165E+02    0.50000E+00  0.50000E+00 -0.10000E+01  0.00000E+00  0.00000E+00  0.00000E+00    0.19053E+02  0.19028E+02 -0.38080E+02 -0.20055E+01  0.16429E+01  0.17921E+02      982.00
