          Evm          Svm            E11          E22          E33          E23          E13          E12         SDEV11       SDEV22       SDEV33       SDEV23       SDEV13       SDEV12      TEMP
  0.00000E+00  0.56626E+02    0.00000E+00  0.00000E+00  0.00000E+00  0.00000E+00  0.00000E+00  0.00000E+00    0.24667E+02  0.10529E+02 -0.35196E+02  0.41328E+00  0.42748E+01 -0.84471E+01      982.00
  0.23308E-01  0.57065E+02    0.12500E-01  0.12500E-01 -0.25000E-01  0.00000E+00  0.00000E+00  0.00000E+00    0.24609E+02  0.10797E+02 -0.35406E+02  0.92123E+00  0.44275E+01 -0.87830E+01      982.00
  0.46575E-01  0.57526E+02    0.25000E-01  0.25000E-01 -0.50000E-01  0.00000E+00  0.00000E+00  0.00000E+00    0.24467E+02  0.11189E+02 -0.35655E+02  0.14475E+01  0.45514E+01 -0.90942E+01      982.00
  0.69818E-01  0.57907E+02    0.37500E-01  0.37500E-01 -0.75000E-01  0.00000E+00  0.00000E+00  0.00000E+00    0.24177E+02  0.11712E+02 -0.35889E+02  0.20183E+01  0.46186E+01 -0.93541E+01      982.00
  0.93059E-01  0.58186E+02    0.50000E-01  0.50000E-01 -0.10000E+00  0.00000E+00  0.00000E+00  0.00000E+00    0.23836E+02  0.12237E+02 -0.36073E+02  0.24966E+01  0.47005E+01 -0.95212E+01      982.00
  0.11631E+00  0.58459E+02    0.62500E-01  0.62500E-01 -0.12500E+00  0.00000E+00  0.00000E+00  0.00000E+00    0.23597E+02  0.12652E+02 -0.36249E+02  0.27888E+01  0.48569E+01 -0.96112E+01      982.00
  0.13956E+00  0.58764E+02    0.75000E-01  0.75000E-01 -0.15000E+00  0.00000E+00  0.00000E+00  0.00000E+00    0.23497E+02  0.12944E+02 -0.36441E+02  0.29259E+01  0.50536E+01 -0.96544E+01      982.00
  0.16281E+00  0.59120E+02    0.87500E-01  0.87500E-01 -0.17500E+00  0.00000E+00  0.00000E+00  0.00000E+00    0.23517E+02  0.13142E+02 -0.36659E+02  0.29813E+01  0.52531E+01 -0.96821E+01      982.00
  0.18607E+00  0.59485E+02    0.10000E+00  0.10000E+00 -0.20000E+00  0.00000E+00  0.00000E+00  0.00000E+00    0.23621E+02  0.13269E+02 -0.36890E+02  0.29757E+01  0.54132E+01 -0.96897E+01      982.00
  0.20932E+00  0.59881E+02    0.11250E+00  0.11250E+00 -0.22500E+00  0.00000E+00  0.00000E+00  0.00000E+00    0.23752E+02  0.13388E+02 -0.37141E+02  0.29849E+01  0.55342E+01 -0.97103E+01      982.00
  0.23258E+00  0.60300E+02    0.12500E+00  0.12500E+00 -0.25000E+00  0.00000E+00  0.00000E+00  0.00000E+00    0.23919E+02  0.13487E+02 -0.37406E+02  0.30015E+01  0.56222E+01 -0.97368E+01      982.00
  0.25584E+00  0.60732E+02    0.13750E+00  0.13750E+00 -0.27500E+00  0.00000E+00  0.00000E+00  0.00000E+00    0.24110E+02  0.13572E+02 -0.37682E+02  0.30250E+01  0.56786E+01 -0.97651E+01      982.00
  0.27911E+00  0.61170E+02    0.15000E+00  0.15000E+00 -0.30000E+00  0.00000E+00  0.00000E+00  0.00000E+00    0.24311E+02  0.13653E+02 -0.37964E+02  0.30603E+01  0.57083E+01 -0.97961E+01      982.00
  0.30239E+00  0.61611E+02    0.16250E+00  0.16250E+00 -0.32500E+00  0.00000E+00  0.00000E+00  0.00000E+00    0.24517E+02  0.13734E+02 -0.38250E+02  0.31084E+01  0.57165E+01 -0.98287E+01      982.00
  0.32567E+00  0.62066E+02    0.17500E+00  0.17500E+00 -0.35000E+00  0.00000E+00  0.00000E+00  0.00000E+00    0.24735E+02  0.13809E+02 -0.38545E+02  0.31717E+01  0.57103E+01 -0.98627E+01      982.00
  0.34895E+00  0.62522E+02    0.18750E+00  0.18750E+00 -0.37500E+00  0.00000E+00  0.00000E+00  0.00000E+00    0.24951E+02  0.13896E+02 -0.38847E+02  0.32482E+01  0.56813E+01 -0.98902E+01      982.00
  0.37225E+00  0.62943E+02    0.20000E+00  0.20000E+00 -0.40000E+00  0.00000E+00  0.00000E+00  0.00000E+00    0.25141E+02  0.13991E+02 -0.39132E+02  0.33270E+01  0.56384E+01 -0.99079E+01      982.00
  0.39557E+00  0.63351E+02    0.21250E+00  0.21250E+00 -0.42500E+00  0.00000E+00  0.00000E+00  0.00000E+00    0.25323E+02  0.14089E+02 -0.39412E+02  0.34100E+01  0.55871E+01 -0.99187E+01      982.00
  0.41890E+00  0.63729E+02    0.22500E+00  0.22500E+00 -0.45000E+00  0.00000E+00  0.00000E+00  0.00000E+00    0.25490E+02  0.14184E+02 -0.39675E+02  0.34823E+01  0.55366E+01 -0.99241E+01      982.00
  0.44224E+00  0.64105E+02    0.23750E+00  0.23750E+00 -0.47500E+00  0.00000E+00  0.00000E+00  0.00000E+00    0.25663E+02  0.14274E+02 -0.39937E+02  0.35552E+01  0.54809E+01 -0.99222E+01      982.00
  0.46561E+00  0.64473E+02    0.25000E+00  0.25000E+00 -0.50000E+00  0.00000E+00  0.00000E+00  0.00000E+00    0.25839E+02  0.14358E+02 -0.40197E+02  0.36296E+01  0.54203E+01 -0.99109E+01      982.00
  0.48899E+00  0.64821E+02    0.26250E+00  0.26250E+00 -0.52500E+00  0.00000E+00  0.00000E+00  0.00000E+00    0.26004E+02  0.14442E+02 -0.40446E+02  0.37077E+01  0.53555E+01 -0.98909E+01      982.00
  0.51239E+00  0.65151E+02    0.27500E+00  0.27500E+00 -0.55000E+00  0.00000E+00  0.00000E+00  0.00000E+00    0.26163E+02  0.14522E+02 -0.40685E+02  0.37834E+01  0.52887E+01 -0.98625E+01      982.00
  0.53580E+00  0.65461E+02    0.28750E+00  0.28750E+00 -0.57500E+00  0.00000E+00  0.00000E+00  0.00000E+00    0.26315E+02  0.14599E+02 -0.40914E+02  0.38514E+01  0.52187E+01 -0.98261E+01      982.00
  0.55924E+00  0.65767E+02    0.30000E+00  0.30000E+00 -0.60000E+00  0.00000E+00  0.00000E+00  0.00000E+00    0.26474E+02  0.14666E+02 -0.41140E+02  0.39201E+01  0.51506E+01 -0.97806E+01      982.00
  0.58270E+00  0.66047E+02    0.31250E+00  0.31250E+00 -0.62500E+00  0.00000E+00  0.00000E+00  0.00000E+00    0.26618E+02  0.14731E+02 -0.41350E+02  0.39862E+01  0.50810E+01 -0.97307E+01      982.00
  0.60618E+00  0.66310E+02    0.32500E+00  0.32500E+00 -0.65000E+00  0.00000E+00  0.00000E+00  0.00000E+00    0.26757E+02  0.14793E+02 -0.41550E+02  0.40489E+01  0.50112E+01 -0.96747E+01      982.00
  0.62967E+00  0.66558E+02    0.33750E+00  0.33750E+00 -0.67500E+00  0.00000E+00  0.00000E+00  0.00000E+00    0.26892E+02  0.14848E+02 -0.41740E+02  0.41079E+01  0.49415E+01 -0.96131E+01      982.00
  0.65319E+00  0.66792E+02    0.35000E+00  0.35000E+00 -0.70000E+00  0.00000E+00  0.00000E+00  0.00000E+00    0.27024E+02  0.14898E+02 -0.41922E+02  0.41632E+01  0.48721E+01 -0.95465E+01      982.00
  0.67673E+00  0.67012E+02    0.36250E+00  0.36250E+00 -0.72500E+00  0.00000E+00  0.00000E+00  0.00000E+00    0.27152E+02  0.14943E+02 -0.42095E+02  0.42149E+01  0.48034E+01 -0.94754E+01      982.00
  0.70028E+00  0.67218E+02    0.37500E+00  0.37500E+00 -0.75000E+00  0.00000E+00  0.00000E+00  0.00000E+00    0.27277E+02  0.14982E+02 -0.42259E+02  0.42631E+01  0.47354E+01 -0.94003E+01      982.00
  0.72386E+00  0.67413E+02    0.38750E+00  0.38750E+00 -0.77500E+00  0.00000E+00  0.00000E+00  0.00000E+00    0.27399E+02  0.15016E+02 -0.42415E+02  0.43079E+01  0.46683E+01 -0.93217E+01      982.00
  0.74745E+00  0.67595E+02    0.40000E+00  0.40000E+00 -0.80000E+00  0.00000E+00  0.00000E+00  0.00000E+00    0.27518E+02  0.15045E+02 -0.42562E+02  0.43495E+01  0.46022E+01 -0.92402E+01      982.00
  0.77107E+00  0.67763E+02    0.41250E+00  0.41250E+00 -0.82500E+00  0.00000E+00  0.00000E+00  0.00000E+00    0.27625E+02  0.15075E+02 -0.42700E+02  0.43901E+01  0.45355E+01 -0.91605E+01      982.00
  0.79470E+00  0.67928E+02    0.42500E+00  0.42500E+00 -0.85000E+00  0.00000E+00  0.00000E+00  0.00000E+00    0.27748E+02  0.15087E+02 -0.42836E+02  0.44243E+01  0.44733E+01 -0.90698E+01      982.00
  0.81834E+00  0.68077E+02    0.43750E+00  0.43750E+00 -0.87500E+00  0.00000E+00  0.00000E+00  0.00000E+00    0.27851E+02  0.15109E+02 -0.42959E+02  0.44594E+01  0.44089E+01 -0.89863E+01      982.00
  0.84201E+00  0.68222E+02    0.45000E+00  0.45000E+00 -0.90000E+00  0.00000E+00  0.00000E+00  0.00000E+00    0.27969E+02  0.15112E+02 -0.43081E+02  0.44885E+01  0.43494E+01 -0.88923E+01      982.00
  0.86569E+00  0.68353E+02    0.46250E+00  0.46250E+00 -0.92500E+00  0.00000E+00  0.00000E+00  0.00000E+00    0.28067E+02  0.15125E+02 -0.43192E+02  0.45190E+01  0.42874E+01 -0.88063E+01      982.00
  0.88938E+00  0.68422E+02    0.47500E+00  0.47500E+00 -0.95000E+00  0.00000E+00  0.00000E+00  0.00000E+00    0.28145E+02  0.15124E+02 -0.43269E+02  0.45290E+01  0.42095E+01 -0.87043E+01      982.00
  0.91310E+00  0.68485E+02    0.48750E+00  0.48750E+00 -0.97500E+00  0.00000E+00  0.00000E+00  0.00000E+00    0.28215E+02  0.15125E+02 -0.43340E+02  0.45385E+01  0.41342E+01 -0.86083E+01      982.00
  0.93683E+00  0.68544E+02    0.50000E+00  0.50000E+00 -0.10000E+01  0.00000E+00  0.00000E+00  0.00000E+00    0.28285E+02  0.15122E+02 -0.43407E+02  0.45466E+01  0.40611E+01 -0.85138E+01      982.00
