          Evm          Svm            E11          E22          E33          E23          E13          E12         SDEV11       SDEV22       SDEV33       SDEV23       SDEV13       SDEV12      TEMP
  0.00000E+00  0.54490E+02    0.00000E+00  0.00000E+00  0.00000E+00  0.00000E+00  0.00000E+00  0.00000E+00    0.14433E+02  0.20219E+02 -0.34653E+02 -0.30352E+01  0.15637E+01  0.83114E+01      982.00
  0.23848E-01  0.54358E+02    0.12500E-01  0.12500E-01 -0.25000E-01  0.00000E+00  0.00000E+00  0.00000E+00    0.14746E+02  0.19808E+02 -0.34553E+02 -0.29003E+01  0.17571E+01  0.84594E+01      982.00
  0.47686E-01  0.54373E+02    0.25000E-01  0.25000E-01 -0.50000E-01  0.00000E+00  0.00000E+00  0.00000E+00    0.15182E+02  0.19348E+02 -0.34530E+02 -0.26912E+01  0.19888E+01  0.87017E+01      982.00
  0.71500E-01  0.54520E+02    0.37500E-01  0.37500E-01 -0.75000E-01  0.00000E+00  0.00000E+00  0.00000E+00    0.15725E+02  0.18840E+02 -0.34565E+02 -0.24193E+01  0.22449E+01  0.90239E+01      982.00
  0.95275E-01  0.54749E+02    0.50000E-01  0.50000E-01 -0.10000E+00  0.00000E+00  0.00000E+00  0.00000E+00    0.16296E+02  0.18334E+02 -0.34630E+02 -0.21298E+01  0.24920E+01  0.93774E+01      982.00
  0.11899E+00  0.55028E+02    0.62500E-01  0.62500E-01 -0.12500E+00  0.00000E+00  0.00000E+00  0.00000E+00    0.16820E+02  0.17891E+02 -0.34711E+02 -0.18581E+01  0.27046E+01  0.97313E+01      982.00
  0.14265E+00  0.55355E+02    0.75000E-01  0.75000E-01 -0.15000E+00  0.00000E+00  0.00000E+00  0.00000E+00    0.17264E+02  0.17547E+02 -0.34811E+02 -0.16137E+01  0.28758E+01  0.10082E+02      982.00
  0.16623E+00  0.55725E+02    0.87500E-01  0.87500E-01 -0.17500E+00  0.00000E+00  0.00000E+00  0.00000E+00    0.17626E+02  0.17307E+02 -0.34934E+02 -0.13941E+01  0.30090E+01  0.10431E+02      982.00
  0.18974E+00  0.56132E+02    0.10000E+00  0.10000E+00 -0.20000E+00  0.00000E+00  0.00000E+00  0.00000E+00    0.17921E+02  0.17157E+02 -0.35078E+02 -0.11953E+01  0.31115E+01  0.10780E+02      982.00
  0.21317E+00  0.56560E+02    0.11250E+00  0.11250E+00 -0.22500E+00  0.00000E+00  0.00000E+00  0.00000E+00    0.18153E+02  0.17085E+02 -0.35238E+02 -0.10169E+01  0.31851E+01  0.11117E+02      982.00
  0.23654E+00  0.56995E+02    0.12500E+00  0.12500E+00 -0.25000E+00  0.00000E+00  0.00000E+00  0.00000E+00    0.18338E+02  0.17070E+02 -0.35408E+02 -0.85622E+00  0.32366E+01  0.11441E+02      982.00
  0.25983E+00  0.57412E+02    0.13750E+00  0.13750E+00 -0.27500E+00  0.00000E+00  0.00000E+00  0.00000E+00    0.18483E+02  0.17093E+02 -0.35576E+02 -0.71904E+00  0.32665E+01  0.11739E+02      982.00
  0.28307E+00  0.57826E+02    0.15000E+00  0.15000E+00 -0.30000E+00  0.00000E+00  0.00000E+00  0.00000E+00    0.18602E+02  0.17145E+02 -0.35747E+02 -0.60638E+00  0.32815E+01  0.12022E+02      982.00
  0.30625E+00  0.58223E+02    0.16250E+00  0.16250E+00 -0.32500E+00  0.00000E+00  0.00000E+00  0.00000E+00    0.18706E+02  0.17207E+02 -0.35913E+02 -0.49724E+00  0.32902E+01  0.12290E+02      982.00
  0.32938E+00  0.58604E+02    0.17500E+00  0.17500E+00 -0.35000E+00  0.00000E+00  0.00000E+00  0.00000E+00    0.18797E+02  0.17280E+02 -0.36077E+02 -0.42349E+00  0.32844E+01  0.12535E+02      982.00
  0.35247E+00  0.58966E+02    0.18750E+00  0.18750E+00 -0.37500E+00  0.00000E+00  0.00000E+00  0.00000E+00    0.18880E+02  0.17354E+02 -0.36234E+02 -0.36712E+00  0.32708E+01  0.12763E+02      982.00
  0.37551E+00  0.59310E+02    0.20000E+00  0.20000E+00 -0.40000E+00  0.00000E+00  0.00000E+00  0.00000E+00    0.18959E+02  0.17427E+02 -0.36385E+02 -0.32650E+00  0.32504E+01  0.12976E+02      982.00
  0.39852E+00  0.59634E+02    0.21250E+00  0.21250E+00 -0.42500E+00  0.00000E+00  0.00000E+00  0.00000E+00    0.19033E+02  0.17496E+02 -0.36529E+02 -0.30023E+00  0.32236E+01  0.13175E+02      982.00
  0.42149E+00  0.59944E+02    0.22500E+00  0.22500E+00 -0.45000E+00  0.00000E+00  0.00000E+00  0.00000E+00    0.19103E+02  0.17560E+02 -0.36663E+02 -0.27299E+00  0.31912E+01  0.13370E+02      982.00
  0.44442E+00  0.60234E+02    0.23750E+00  0.23750E+00 -0.47500E+00  0.00000E+00  0.00000E+00  0.00000E+00    0.19172E+02  0.17620E+02 -0.36792E+02 -0.27295E+00  0.31517E+01  0.13547E+02      982.00
  0.46733E+00  0.60510E+02    0.25000E+00  0.25000E+00 -0.50000E+00  0.00000E+00  0.00000E+00  0.00000E+00    0.19240E+02  0.17675E+02 -0.36914E+02 -0.28395E+00  0.31063E+01  0.13716E+02      982.00
  0.49021E+00  0.60787E+02    0.26250E+00  0.26250E+00 -0.52500E+00  0.00000E+00  0.00000E+00  0.00000E+00    0.19308E+02  0.17726E+02 -0.37034E+02 -0.29584E+00  0.30472E+01  0.13895E+02      982.00
  0.51305E+00  0.61037E+02    0.27500E+00  0.27500E+00 -0.55000E+00  0.00000E+00  0.00000E+00  0.00000E+00    0.19371E+02  0.17771E+02 -0.37143E+02 -0.32515E+00  0.29897E+01  0.14052E+02      982.00
  0.53587E+00  0.61276E+02    0.28750E+00  0.28750E+00 -0.57500E+00  0.00000E+00  0.00000E+00  0.00000E+00    0.19434E+02  0.17812E+02 -0.37246E+02 -0.36541E+00  0.29255E+01  0.14204E+02      982.00
  0.55867E+00  0.61506E+02    0.30000E+00  0.30000E+00 -0.60000E+00  0.00000E+00  0.00000E+00  0.00000E+00    0.19496E+02  0.17849E+02 -0.37344E+02 -0.41332E+00  0.28556E+01  0.14354E+02      982.00
  0.58144E+00  0.61717E+02    0.31250E+00  0.31250E+00 -0.62500E+00  0.00000E+00  0.00000E+00  0.00000E+00    0.19553E+02  0.17880E+02 -0.37433E+02 -0.46858E+00  0.27941E+01  0.14492E+02      982.00
  0.60418E+00  0.61934E+02    0.32500E+00  0.32500E+00 -0.65000E+00  0.00000E+00  0.00000E+00  0.00000E+00    0.19612E+02  0.17909E+02 -0.37522E+02 -0.52749E+00  0.27157E+01  0.14640E+02      982.00
  0.62690E+00  0.62154E+02    0.33750E+00  0.33750E+00 -0.67500E+00  0.00000E+00  0.00000E+00  0.00000E+00    0.19673E+02  0.17936E+02 -0.37609E+02 -0.59335E+00  0.26398E+01  0.14793E+02      982.00
  0.64959E+00  0.62361E+02    0.35000E+00  0.35000E+00 -0.70000E+00  0.00000E+00  0.00000E+00  0.00000E+00    0.19730E+02  0.17959E+02 -0.37688E+02 -0.66210E+00  0.25530E+01  0.14941E+02      982.00
  0.67225E+00  0.62563E+02    0.36250E+00  0.36250E+00 -0.72500E+00  0.00000E+00  0.00000E+00  0.00000E+00    0.19785E+02  0.17979E+02 -0.37764E+02 -0.73583E+00  0.24621E+01  0.15090E+02      982.00
  0.69489E+00  0.62761E+02    0.37500E+00  0.37500E+00 -0.75000E+00  0.00000E+00  0.00000E+00  0.00000E+00    0.19840E+02  0.17995E+02 -0.37835E+02 -0.81382E+00  0.23679E+01  0.15239E+02      982.00
  0.71750E+00  0.62972E+02    0.38750E+00  0.38750E+00 -0.77500E+00  0.00000E+00  0.00000E+00  0.00000E+00    0.19899E+02  0.18009E+02 -0.37908E+02 -0.89261E+00  0.22786E+01  0.15401E+02      982.00
  0.74007E+00  0.63162E+02    0.40000E+00  0.40000E+00 -0.80000E+00  0.00000E+00  0.00000E+00  0.00000E+00    0.19952E+02  0.18019E+02 -0.37971E+02 -0.97551E+00  0.21819E+01  0.15551E+02      982.00
  0.76261E+00  0.63347E+02    0.41250E+00  0.41250E+00 -0.82500E+00  0.00000E+00  0.00000E+00  0.00000E+00    0.20004E+02  0.18025E+02 -0.38029E+02 -0.10602E+01  0.20848E+01  0.15701E+02      982.00
  0.78513E+00  0.63529E+02    0.42500E+00  0.42500E+00 -0.85000E+00  0.00000E+00  0.00000E+00  0.00000E+00    0.20056E+02  0.18027E+02 -0.38083E+02 -0.11455E+01  0.19891E+01  0.15851E+02      982.00
  0.80761E+00  0.63705E+02    0.43750E+00  0.43750E+00 -0.87500E+00  0.00000E+00  0.00000E+00  0.00000E+00    0.20108E+02  0.18025E+02 -0.38133E+02 -0.12300E+01  0.18962E+01  0.16000E+02      982.00
  0.83005E+00  0.63887E+02    0.45000E+00  0.45000E+00 -0.90000E+00  0.00000E+00  0.00000E+00  0.00000E+00    0.20164E+02  0.18017E+02 -0.38181E+02 -0.13065E+01  0.18155E+01  0.16156E+02      982.00
  0.85246E+00  0.64052E+02    0.46250E+00  0.46250E+00 -0.92500E+00  0.00000E+00  0.00000E+00  0.00000E+00    0.20216E+02  0.18005E+02 -0.38222E+02 -0.13848E+01  0.17341E+01  0.16302E+02      982.00
  0.87484E+00  0.64168E+02    0.47500E+00  0.47500E+00 -0.95000E+00  0.00000E+00  0.00000E+00  0.00000E+00    0.20259E+02  0.17976E+02 -0.38235E+02 -0.14560E+01  0.16558E+01  0.16429E+02      982.00
  0.89719E+00  0.64280E+02    0.48750E+00  0.48750E+00 -0.97500E+00  0.00000E+00  0.00000E+00  0.00000E+00    0.20304E+02  0.17941E+02 -0.38245E+02 -0.15201E+01  0.15886E+01  0.16554E+02      982.00
  0.91950E+00  0.64404E+02    0.50000E+00  0.50000E+00 -0.10000E+01  0.00000E+00  0.00000E+00  0.00000E+00    0.20357E+02  0.17902E+02 -0.38259E+02 -0.15764E+01  0.15339E+01  0.16686E+02      982.00
