          Evm          Svm            E11          E22          E33          E23          E13          E12         SDEV11       SDEV22       SDEV33       SDEV23       SDEV13       SDEV12      TEMP
  0.00000E+00  0.55060E+02    0.00000E+00  0.00000E+00  0.00000E+00  0.00000E+00  0.00000E+00  0.00000E+00    0.19655E+02  0.13695E+02 -0.33350E+02 -0.16248E+01  0.53107E+01  0.11689E+02      982.00
  0.22714E-01  0.55014E+02    0.12500E-01  0.12500E-01 -0.25000E-01  0.00000E+00  0.00000E+00  0.00000E+00    0.19348E+02  0.14022E+02 -0.33370E+02 -0.17856E+01  0.48638E+01  0.11823E+02      982.00
  0.45460E-01  0.55049E+02    0.25000E-01  0.25000E-01 -0.50000E-01  0.00000E+00  0.00000E+00  0.00000E+00    0.19065E+02  0.14348E+02 -0.33413E+02 -0.19174E+01  0.44706E+01  0.11984E+02      982.00
  0.68221E-01  0.55189E+02    0.37500E-01  0.37500E-01 -0.75000E-01  0.00000E+00  0.00000E+00  0.00000E+00    0.18849E+02  0.14641E+02 -0.33490E+02 -0.20193E+01  0.41377E+01  0.12186E+02      982.00
  0.90976E-01  0.55447E+02    0.50000E-01  0.50000E-01 -0.10000E+00  0.00000E+00  0.00000E+00  0.00000E+00    0.18730E+02  0.14881E+02 -0.33611E+02 -0.20959E+01  0.38630E+01  0.12430E+02      982.00
  0.11371E+00  0.55815E+02    0.62500E-01  0.62500E-01 -0.12500E+00  0.00000E+00  0.00000E+00  0.00000E+00    0.18696E+02  0.15080E+02 -0.33776E+02 -0.21565E+01  0.36349E+01  0.12717E+02      982.00
  0.13640E+00  0.56269E+02    0.75000E-01  0.75000E-01 -0.15000E+00  0.00000E+00  0.00000E+00  0.00000E+00    0.18735E+02  0.15242E+02 -0.33978E+02 -0.22010E+01  0.34495E+01  0.13028E+02      982.00
  0.15904E+00  0.56760E+02    0.87500E-01  0.87500E-01 -0.17500E+00  0.00000E+00  0.00000E+00  0.00000E+00    0.18814E+02  0.15384E+02 -0.34198E+02 -0.22356E+01  0.32888E+01  0.13343E+02      982.00
  0.18164E+00  0.57285E+02    0.10000E+00  0.10000E+00 -0.20000E+00  0.00000E+00  0.00000E+00  0.00000E+00    0.18928E+02  0.15504E+02 -0.34432E+02 -0.22543E+01  0.31666E+01  0.13662E+02      982.00
  0.20418E+00  0.57801E+02    0.11250E+00  0.11250E+00 -0.22500E+00  0.00000E+00  0.00000E+00  0.00000E+00    0.19048E+02  0.15614E+02 -0.34662E+02 -0.22675E+01  0.30578E+01  0.13969E+02      982.00
  0.22667E+00  0.58332E+02    0.12500E+00  0.12500E+00 -0.25000E+00  0.00000E+00  0.00000E+00  0.00000E+00    0.19176E+02  0.15723E+02 -0.34899E+02 -0.22689E+01  0.29841E+01  0.14272E+02      982.00
  0.24910E+00  0.58856E+02    0.13750E+00  0.13750E+00 -0.27500E+00  0.00000E+00  0.00000E+00  0.00000E+00    0.19302E+02  0.15832E+02 -0.35134E+02 -0.22641E+01  0.29308E+01  0.14565E+02      982.00
  0.27149E+00  0.59354E+02    0.15000E+00  0.15000E+00 -0.30000E+00  0.00000E+00  0.00000E+00  0.00000E+00    0.19415E+02  0.15942E+02 -0.35357E+02 -0.22544E+01  0.28902E+01  0.14840E+02      982.00
  0.29383E+00  0.59827E+02    0.16250E+00  0.16250E+00 -0.32500E+00  0.00000E+00  0.00000E+00  0.00000E+00    0.19514E+02  0.16055E+02 -0.35569E+02 -0.22415E+01  0.28606E+01  0.15100E+02      982.00
  0.31612E+00  0.60273E+02    0.17500E+00  0.17500E+00 -0.35000E+00  0.00000E+00  0.00000E+00  0.00000E+00    0.19597E+02  0.16171E+02 -0.35768E+02 -0.22271E+01  0.28383E+01  0.15346E+02      982.00
  0.33838E+00  0.60692E+02    0.18750E+00  0.18750E+00 -0.37500E+00  0.00000E+00  0.00000E+00  0.00000E+00    0.19664E+02  0.16289E+02 -0.35953E+02 -0.22129E+01  0.28201E+01  0.15578E+02      982.00
  0.36059E+00  0.61078E+02    0.20000E+00  0.20000E+00 -0.40000E+00  0.00000E+00  0.00000E+00  0.00000E+00    0.19711E+02  0.16412E+02 -0.36123E+02 -0.22006E+01  0.28016E+01  0.15794E+02      982.00
  0.38277E+00  0.61443E+02    0.21250E+00  0.21250E+00 -0.42500E+00  0.00000E+00  0.00000E+00  0.00000E+00    0.19744E+02  0.16537E+02 -0.36281E+02 -0.21919E+01  0.27828E+01  0.16001E+02      982.00
  0.40491E+00  0.61783E+02    0.22500E+00  0.22500E+00 -0.45000E+00  0.00000E+00  0.00000E+00  0.00000E+00    0.19761E+02  0.16667E+02 -0.36427E+02 -0.21879E+01  0.27601E+01  0.16197E+02      982.00
  0.42702E+00  0.62097E+02    0.23750E+00  0.23750E+00 -0.47500E+00  0.00000E+00  0.00000E+00  0.00000E+00    0.19762E+02  0.16799E+02 -0.36561E+02 -0.21894E+01  0.27319E+01  0.16383E+02      982.00
  0.44910E+00  0.62388E+02    0.25000E+00  0.25000E+00 -0.50000E+00  0.00000E+00  0.00000E+00  0.00000E+00    0.19750E+02  0.16933E+02 -0.36683E+02 -0.21964E+01  0.26970E+01  0.16557E+02      982.00
  0.47115E+00  0.62672E+02    0.26250E+00  0.26250E+00 -0.52500E+00  0.00000E+00  0.00000E+00  0.00000E+00    0.19732E+02  0.17071E+02 -0.36803E+02 -0.22070E+01  0.26603E+01  0.16724E+02      982.00
  0.49317E+00  0.62921E+02    0.27500E+00  0.27500E+00 -0.55000E+00  0.00000E+00  0.00000E+00  0.00000E+00    0.19699E+02  0.17206E+02 -0.36905E+02 -0.22236E+01  0.26139E+01  0.16878E+02      982.00
  0.51517E+00  0.63151E+02    0.28750E+00  0.28750E+00 -0.57500E+00  0.00000E+00  0.00000E+00  0.00000E+00    0.19659E+02  0.17341E+02 -0.37000E+02 -0.22431E+01  0.25631E+01  0.17020E+02      982.00
  0.53714E+00  0.63364E+02    0.30000E+00  0.30000E+00 -0.60000E+00  0.00000E+00  0.00000E+00  0.00000E+00    0.19614E+02  0.17473E+02 -0.37087E+02 -0.22637E+01  0.25097E+01  0.17151E+02      982.00
  0.55909E+00  0.63560E+02    0.31250E+00  0.31250E+00 -0.62500E+00  0.00000E+00  0.00000E+00  0.00000E+00    0.19566E+02  0.17603E+02 -0.37168E+02 -0.22839E+01  0.24556E+01  0.17272E+02      982.00
  0.58101E+00  0.63742E+02    0.32500E+00  0.32500E+00 -0.65000E+00  0.00000E+00  0.00000E+00  0.00000E+00    0.19517E+02  0.17727E+02 -0.37244E+02 -0.23024E+01  0.24022E+01  0.17381E+02      982.00
  0.60293E+00  0.63910E+02    0.33750E+00  0.33750E+00 -0.67500E+00  0.00000E+00  0.00000E+00  0.00000E+00    0.19469E+02  0.17847E+02 -0.37316E+02 -0.23182E+01  0.23509E+01  0.17480E+02      982.00
  0.62482E+00  0.64051E+02    0.35000E+00  0.35000E+00 -0.70000E+00  0.00000E+00  0.00000E+00  0.00000E+00    0.19414E+02  0.17963E+02 -0.37378E+02 -0.23348E+01  0.22947E+01  0.17563E+02      982.00
  0.64670E+00  0.64197E+02    0.36250E+00  0.36250E+00 -0.72500E+00  0.00000E+00  0.00000E+00  0.00000E+00    0.19372E+02  0.18070E+02 -0.37442E+02 -0.23439E+01  0.22497E+01  0.17645E+02      982.00
  0.66858E+00  0.64332E+02    0.37500E+00  0.37500E+00 -0.75000E+00  0.00000E+00  0.00000E+00  0.00000E+00    0.19333E+02  0.18170E+02 -0.37503E+02 -0.23492E+01  0.22088E+01  0.17718E+02      982.00
  0.69044E+00  0.64457E+02    0.38750E+00  0.38750E+00 -0.77500E+00  0.00000E+00  0.00000E+00  0.00000E+00    0.19297E+02  0.18264E+02 -0.37561E+02 -0.23512E+01  0.21716E+01  0.17784E+02      982.00
  0.71229E+00  0.64563E+02    0.40000E+00  0.40000E+00 -0.80000E+00  0.00000E+00  0.00000E+00  0.00000E+00    0.19262E+02  0.18351E+02 -0.37613E+02 -0.23510E+01  0.21328E+01  0.17835E+02      982.00
  0.73414E+00  0.64671E+02    0.41250E+00  0.41250E+00 -0.82500E+00  0.00000E+00  0.00000E+00  0.00000E+00    0.19235E+02  0.18432E+02 -0.37666E+02 -0.23475E+01  0.21023E+01  0.17888E+02      982.00
  0.75598E+00  0.64772E+02    0.42500E+00  0.42500E+00 -0.85000E+00  0.00000E+00  0.00000E+00  0.00000E+00    0.19211E+02  0.18506E+02 -0.37716E+02 -0.23418E+01  0.20751E+01  0.17935E+02      982.00
  0.77781E+00  0.64865E+02    0.43750E+00  0.43750E+00 -0.87500E+00  0.00000E+00  0.00000E+00  0.00000E+00    0.19190E+02  0.18574E+02 -0.37763E+02 -0.23344E+01  0.20506E+01  0.17977E+02      982.00
  0.79965E+00  0.64922E+02    0.45000E+00  0.45000E+00 -0.90000E+00  0.00000E+00  0.00000E+00  0.00000E+00    0.19159E+02  0.18633E+02 -0.37792E+02 -0.23250E+01  0.20202E+01  0.18005E+02      982.00
  0.82148E+00  0.65005E+02    0.46250E+00  0.46250E+00 -0.92500E+00  0.00000E+00  0.00000E+00  0.00000E+00    0.19145E+02  0.18691E+02 -0.37836E+02 -0.23156E+01  0.19998E+01  0.18040E+02      982.00
  0.84330E+00  0.65081E+02    0.47500E+00  0.47500E+00 -0.95000E+00  0.00000E+00  0.00000E+00  0.00000E+00    0.19134E+02  0.18743E+02 -0.37877E+02 -0.23050E+01  0.19820E+01  0.18071E+02      982.00
  0.86513E+00  0.65151E+02    0.48750E+00  0.48750E+00 -0.97500E+00  0.00000E+00  0.00000E+00  0.00000E+00    0.19126E+02  0.18790E+02 -0.37916E+02 -0.22940E+01  0.19658E+01  0.18098E+02      982.00
  0.88695E+00  0.65179E+02    0.50000E+00  0.50000E+00 -0.10000E+01  0.00000E+00  0.00000E+00  0.00000E+00    0.19112E+02  0.18820E+02 -0.37932E+02 -0.22734E+01  0.19475E+01  0.18111E+02      982.00
