          Evm          Svm            E11          E22          E33          E23          E13          E12         SDEV11       SDEV22       SDEV33       SDEV23       SDEV13       SDEV12      TEMP
  0.00000E+00  0.63782E+02    0.00000E+00  0.00000E+00  0.00000E+00  0.00000E+00  0.00000E+00  0.00000E+00    0.27013E+02  0.13492E+02 -0.40506E+02  0.75755E+01 -0.23696E+01 -0.41009E+01      982.00
  0.23815E-01  0.63685E+02    0.12500E-01  0.12500E-01 -0.25000E-01  0.00000E+00  0.00000E+00  0.00000E+00    0.27158E+02  0.13297E+02 -0.40456E+02  0.73860E+01 -0.24552E+01 -0.39803E+01      982.00
  0.47636E-01  0.63668E+02    0.25000E-01  0.25000E-01 -0.50000E-01  0.00000E+00  0.00000E+00  0.00000E+00    0.27340E+02  0.13102E+02 -0.40442E+02  0.72342E+01 -0.25414E+01 -0.38818E+01      982.00
  0.71456E-01  0.63722E+02    0.37500E-01  0.37500E-01 -0.75000E-01  0.00000E+00  0.00000E+00  0.00000E+00    0.27559E+02  0.12909E+02 -0.40467E+02  0.70997E+01 -0.26184E+01 -0.37928E+01      982.00
  0.95271E-01  0.63852E+02    0.50000E-01  0.50000E-01 -0.10000E+00  0.00000E+00  0.00000E+00  0.00000E+00    0.27808E+02  0.12728E+02 -0.40536E+02  0.69905E+01 -0.26778E+01 -0.37145E+01      982.00
  0.11908E+00  0.64049E+02    0.62500E-01  0.62500E-01 -0.12500E+00  0.00000E+00  0.00000E+00  0.00000E+00    0.28081E+02  0.12564E+02 -0.40645E+02  0.68884E+01 -0.27288E+01 -0.36490E+01      982.00
  0.14287E+00  0.64310E+02    0.75000E-01  0.75000E-01 -0.15000E+00  0.00000E+00  0.00000E+00  0.00000E+00    0.28363E+02  0.12432E+02 -0.40795E+02  0.68137E+01 -0.27535E+01 -0.35991E+01      982.00
  0.16666E+00  0.64626E+02    0.87500E-01  0.87500E-01 -0.17500E+00  0.00000E+00  0.00000E+00  0.00000E+00    0.28653E+02  0.12329E+02 -0.40982E+02  0.67549E+01 -0.27532E+01 -0.35634E+01      982.00
  0.19044E+00  0.64983E+02    0.10000E+00  0.10000E+00 -0.20000E+00  0.00000E+00  0.00000E+00  0.00000E+00    0.28945E+02  0.12256E+02 -0.41201E+02  0.66981E+01 -0.27294E+01 -0.35407E+01      982.00
  0.21422E+00  0.65380E+02    0.11250E+00  0.11250E+00 -0.22500E+00  0.00000E+00  0.00000E+00  0.00000E+00    0.29233E+02  0.12216E+02 -0.41449E+02  0.66558E+01 -0.26703E+01 -0.35335E+01      982.00
  0.23799E+00  0.65797E+02    0.12500E+00  0.12500E+00 -0.25000E+00  0.00000E+00  0.00000E+00  0.00000E+00    0.29519E+02  0.12199E+02 -0.41718E+02  0.66047E+01 -0.25782E+01 -0.35408E+01      982.00
  0.26177E+00  0.66256E+02    0.13750E+00  0.13750E+00 -0.27500E+00  0.00000E+00  0.00000E+00  0.00000E+00    0.29802E+02  0.12217E+02 -0.42019E+02  0.65627E+01 -0.24588E+01 -0.35593E+01      982.00
  0.28555E+00  0.66749E+02    0.15000E+00  0.15000E+00 -0.30000E+00  0.00000E+00  0.00000E+00  0.00000E+00    0.30085E+02  0.12261E+02 -0.42345E+02  0.65259E+01 -0.23342E+01 -0.35809E+01      982.00
  0.30934E+00  0.67261E+02    0.16250E+00  0.16250E+00 -0.32500E+00  0.00000E+00  0.00000E+00  0.00000E+00    0.30353E+02  0.12334E+02 -0.42687E+02  0.65111E+01 -0.22563E+01 -0.35650E+01      982.00
  0.33314E+00  0.67614E+02    0.17500E+00  0.17500E+00 -0.35000E+00  0.00000E+00  0.00000E+00  0.00000E+00    0.30511E+02  0.12437E+02 -0.42948E+02  0.64991E+01 -0.22330E+01 -0.34062E+01      982.00
  0.35696E+00  0.67788E+02    0.18750E+00  0.18750E+00 -0.37500E+00  0.00000E+00  0.00000E+00  0.00000E+00    0.30556E+02  0.12572E+02 -0.43127E+02  0.64163E+01 -0.21250E+01 -0.31937E+01      982.00
  0.38082E+00  0.67872E+02    0.20000E+00  0.20000E+00 -0.40000E+00  0.00000E+00  0.00000E+00  0.00000E+00    0.30561E+02  0.12701E+02 -0.43262E+02  0.62775E+01 -0.19024E+01 -0.30135E+01      982.00
  0.40472E+00  0.67952E+02    0.21250E+00  0.21250E+00 -0.42500E+00  0.00000E+00  0.00000E+00  0.00000E+00    0.30571E+02  0.12823E+02 -0.43394E+02  0.61085E+01 -0.16264E+01 -0.28615E+01      982.00
  0.42867E+00  0.68051E+02    0.22500E+00  0.22500E+00 -0.45000E+00  0.00000E+00  0.00000E+00  0.00000E+00    0.30594E+02  0.12936E+02 -0.43529E+02  0.59424E+01 -0.13430E+01 -0.27314E+01      982.00
  0.45266E+00  0.68167E+02    0.23750E+00  0.23750E+00 -0.47500E+00  0.00000E+00  0.00000E+00  0.00000E+00    0.30632E+02  0.13034E+02 -0.43666E+02  0.57805E+01 -0.10509E+01 -0.26356E+01      982.00
  0.47668E+00  0.68303E+02    0.25000E+00  0.25000E+00 -0.50000E+00  0.00000E+00  0.00000E+00  0.00000E+00    0.30676E+02  0.13127E+02 -0.43802E+02  0.56568E+01 -0.82203E+00 -0.25438E+01      982.00
  0.50073E+00  0.68448E+02    0.26250E+00  0.26250E+00 -0.52500E+00  0.00000E+00  0.00000E+00  0.00000E+00    0.30727E+02  0.13207E+02 -0.43935E+02  0.55514E+01 -0.62927E+00 -0.24618E+01      982.00
  0.52480E+00  0.68597E+02    0.27500E+00  0.27500E+00 -0.55000E+00  0.00000E+00  0.00000E+00  0.00000E+00    0.30782E+02  0.13279E+02 -0.44061E+02  0.54718E+01 -0.47711E+00 -0.23894E+01      982.00
  0.54888E+00  0.68746E+02    0.28750E+00  0.28750E+00 -0.57500E+00  0.00000E+00  0.00000E+00  0.00000E+00    0.30842E+02  0.13341E+02 -0.44182E+02  0.54030E+01 -0.35433E+00 -0.23180E+01      982.00
  0.57298E+00  0.68888E+02    0.30000E+00  0.30000E+00 -0.60000E+00  0.00000E+00  0.00000E+00  0.00000E+00    0.30895E+02  0.13400E+02 -0.44294E+02  0.53621E+01 -0.27199E+00 -0.22410E+01      982.00
  0.59710E+00  0.69031E+02    0.31250E+00  0.31250E+00 -0.62500E+00  0.00000E+00  0.00000E+00  0.00000E+00    0.30947E+02  0.13456E+02 -0.44404E+02  0.53374E+01 -0.22729E+00 -0.21576E+01      982.00
  0.62122E+00  0.69174E+02    0.32500E+00  0.32500E+00 -0.65000E+00  0.00000E+00  0.00000E+00  0.00000E+00    0.31003E+02  0.13508E+02 -0.44512E+02  0.53134E+01 -0.19143E+00 -0.20648E+01      982.00
  0.64535E+00  0.69284E+02    0.33750E+00  0.33750E+00 -0.67500E+00  0.00000E+00  0.00000E+00  0.00000E+00    0.31038E+02  0.13556E+02 -0.44593E+02  0.53202E+01 -0.18633E+00 -0.19824E+01      982.00
  0.66948E+00  0.69401E+02    0.35000E+00  0.35000E+00 -0.70000E+00  0.00000E+00  0.00000E+00  0.00000E+00    0.31079E+02  0.13600E+02 -0.44679E+02  0.53199E+01 -0.19001E+00 -0.18961E+01      982.00
  0.69363E+00  0.69501E+02    0.36250E+00  0.36250E+00 -0.72500E+00  0.00000E+00  0.00000E+00  0.00000E+00    0.31117E+02  0.13635E+02 -0.44752E+02  0.53198E+01 -0.20009E+00 -0.18342E+01      982.00
  0.71777E+00  0.69600E+02    0.37500E+00  0.37500E+00 -0.75000E+00  0.00000E+00  0.00000E+00  0.00000E+00    0.31153E+02  0.13671E+02 -0.44824E+02  0.53244E+01 -0.21454E+00 -0.17525E+01      982.00
  0.74192E+00  0.69691E+02    0.38750E+00  0.38750E+00 -0.77500E+00  0.00000E+00  0.00000E+00  0.00000E+00    0.31185E+02  0.13705E+02 -0.44889E+02  0.53321E+01 -0.23404E+00 -0.16705E+01      982.00
  0.76608E+00  0.69765E+02    0.40000E+00  0.40000E+00 -0.80000E+00  0.00000E+00  0.00000E+00  0.00000E+00    0.31209E+02  0.13733E+02 -0.44942E+02  0.53427E+01 -0.25446E+00 -0.16022E+01      982.00
  0.79023E+00  0.69840E+02    0.41250E+00  0.41250E+00 -0.82500E+00  0.00000E+00  0.00000E+00  0.00000E+00    0.31234E+02  0.13763E+02 -0.44996E+02  0.53535E+01 -0.27988E+00 -0.15204E+01      982.00
  0.81439E+00  0.69907E+02    0.42500E+00  0.42500E+00 -0.85000E+00  0.00000E+00  0.00000E+00  0.00000E+00    0.31255E+02  0.13790E+02 -0.45045E+02  0.53656E+01 -0.30781E+00 -0.14383E+01      982.00
  0.83856E+00  0.69968E+02    0.43750E+00  0.43750E+00 -0.87500E+00  0.00000E+00  0.00000E+00  0.00000E+00    0.31273E+02  0.13816E+02 -0.45089E+02  0.53788E+01 -0.33751E+00 -0.13558E+01      982.00
  0.86272E+00  0.70022E+02    0.45000E+00  0.45000E+00 -0.90000E+00  0.00000E+00  0.00000E+00  0.00000E+00    0.31287E+02  0.13841E+02 -0.45129E+02  0.53928E+01 -0.36850E+00 -0.12728E+01      982.00
  0.88689E+00  0.70012E+02    0.46250E+00  0.46250E+00 -0.92500E+00  0.00000E+00  0.00000E+00  0.00000E+00    0.31281E+02  0.13847E+02 -0.45128E+02  0.53802E+01 -0.40023E+00 -0.11784E+01      982.00
  0.91106E+00  0.70002E+02    0.47500E+00  0.47500E+00 -0.95000E+00  0.00000E+00  0.00000E+00  0.00000E+00    0.31269E+02  0.13859E+02 -0.45128E+02  0.53714E+01 -0.42968E+00 -0.10945E+01      982.00
  0.93524E+00  0.69987E+02    0.48750E+00  0.48750E+00 -0.97500E+00  0.00000E+00  0.00000E+00  0.00000E+00    0.31252E+02  0.13872E+02 -0.45125E+02  0.53656E+01 -0.45798E+00 -0.10125E+01      982.00
  0.95942E+00  0.69971E+02    0.50000E+00  0.50000E+00 -0.10000E+01  0.00000E+00  0.00000E+00  0.00000E+00    0.31234E+02  0.13886E+02 -0.45120E+02  0.53609E+01 -0.48636E+00 -0.93023E+00      982.00
