          Evm          Svm            E11          E22          E33          E23          E13          E12         SDEV11       SDEV22       SDEV33       SDEV23       SDEV13       SDEV12      TEMP
  0.00000E+00  0.54953E+02    0.00000E+00  0.00000E+00  0.00000E+00  0.00000E+00  0.00000E+00  0.00000E+00    0.14355E+02  0.19515E+02 -0.33870E+02 -0.44953E+01  0.15631E+01  0.10812E+02      982.00
  0.23113E-01  0.54947E+02    0.12500E-01  0.12500E-01 -0.25000E-01  0.00000E+00  0.00000E+00  0.00000E+00    0.14752E+02  0.19119E+02 -0.33870E+02 -0.40762E+01  0.17405E+01  0.11027E+02      982.00
  0.46229E-01  0.55032E+02    0.25000E-01  0.25000E-01 -0.50000E-01  0.00000E+00  0.00000E+00  0.00000E+00    0.15181E+02  0.18722E+02 -0.33903E+02 -0.36779E+01  0.18991E+01  0.11276E+02      982.00
  0.69331E-01  0.55200E+02    0.37500E-01  0.37500E-01 -0.75000E-01  0.00000E+00  0.00000E+00  0.00000E+00    0.15583E+02  0.18382E+02 -0.33965E+02 -0.33292E+01  0.20234E+01  0.11547E+02      982.00
  0.92405E-01  0.55471E+02    0.50000E-01  0.50000E-01 -0.10000E+00  0.00000E+00  0.00000E+00  0.00000E+00    0.15925E+02  0.18143E+02 -0.34067E+02 -0.30353E+01  0.21142E+01  0.11847E+02      982.00
  0.11544E+00  0.55844E+02    0.62500E-01  0.62500E-01 -0.12500E+00  0.00000E+00  0.00000E+00  0.00000E+00    0.16210E+02  0.18002E+02 -0.34212E+02 -0.27844E+01  0.21805E+01  0.12180E+02      982.00
  0.13841E+00  0.56299E+02    0.75000E-01  0.75000E-01 -0.15000E+00  0.00000E+00  0.00000E+00  0.00000E+00    0.16442E+02  0.17953E+02 -0.34396E+02 -0.25724E+01  0.22245E+01  0.12534E+02      982.00
  0.16132E+00  0.56807E+02    0.87500E-01  0.87500E-01 -0.17500E+00  0.00000E+00  0.00000E+00  0.00000E+00    0.16638E+02  0.17968E+02 -0.34606E+02 -0.23903E+01  0.22510E+01  0.12895E+02      982.00
  0.18416E+00  0.57342E+02    0.10000E+00  0.10000E+00 -0.20000E+00  0.00000E+00  0.00000E+00  0.00000E+00    0.16807E+02  0.18025E+02 -0.34831E+02 -0.22334E+01  0.22623E+01  0.13252E+02      982.00
  0.20694E+00  0.57885E+02    0.11250E+00  0.11250E+00 -0.22500E+00  0.00000E+00  0.00000E+00  0.00000E+00    0.16956E+02  0.18107E+02 -0.35063E+02 -0.20982E+01  0.22603E+01  0.13601E+02      982.00
  0.22966E+00  0.58423E+02    0.12500E+00  0.12500E+00 -0.25000E+00  0.00000E+00  0.00000E+00  0.00000E+00    0.17089E+02  0.18206E+02 -0.35296E+02 -0.20021E+01  0.22434E+01  0.13931E+02      982.00
  0.25231E+00  0.58947E+02    0.13750E+00  0.13750E+00 -0.27500E+00  0.00000E+00  0.00000E+00  0.00000E+00    0.17214E+02  0.18310E+02 -0.35524E+02 -0.19286E+01  0.22171E+01  0.14242E+02      982.00
  0.27491E+00  0.59429E+02    0.15000E+00  0.15000E+00 -0.30000E+00  0.00000E+00  0.00000E+00  0.00000E+00    0.17328E+02  0.18409E+02 -0.35737E+02 -0.18796E+01  0.21812E+01  0.14520E+02      982.00
  0.29746E+00  0.59909E+02    0.16250E+00  0.16250E+00 -0.32500E+00  0.00000E+00  0.00000E+00  0.00000E+00    0.17442E+02  0.18506E+02 -0.35949E+02 -0.18429E+01  0.21408E+01  0.14794E+02      982.00
  0.31997E+00  0.60346E+02    0.17500E+00  0.17500E+00 -0.35000E+00  0.00000E+00  0.00000E+00  0.00000E+00    0.17548E+02  0.18591E+02 -0.36140E+02 -0.18084E+01  0.20958E+01  0.15046E+02      982.00
  0.34242E+00  0.60772E+02    0.18750E+00  0.18750E+00 -0.37500E+00  0.00000E+00  0.00000E+00  0.00000E+00    0.17654E+02  0.18674E+02 -0.36327E+02 -0.18002E+01  0.20458E+01  0.15285E+02      982.00
  0.36484E+00  0.61170E+02    0.20000E+00  0.20000E+00 -0.40000E+00  0.00000E+00  0.00000E+00  0.00000E+00    0.17755E+02  0.18747E+02 -0.36502E+02 -0.18019E+01  0.19932E+01  0.15508E+02      982.00
  0.38722E+00  0.61543E+02    0.21250E+00  0.21250E+00 -0.42500E+00  0.00000E+00  0.00000E+00  0.00000E+00    0.17853E+02  0.18809E+02 -0.36662E+02 -0.18009E+01  0.19354E+01  0.15723E+02      982.00
  0.40956E+00  0.61918E+02    0.22500E+00  0.22500E+00 -0.45000E+00  0.00000E+00  0.00000E+00  0.00000E+00    0.17956E+02  0.18864E+02 -0.36821E+02 -0.18098E+01  0.18705E+01  0.15942E+02      982.00
  0.43186E+00  0.62238E+02    0.23750E+00  0.23750E+00 -0.47500E+00  0.00000E+00  0.00000E+00  0.00000E+00    0.18048E+02  0.18910E+02 -0.36958E+02 -0.18310E+01  0.18174E+01  0.16123E+02      982.00
  0.45412E+00  0.62535E+02    0.25000E+00  0.25000E+00 -0.50000E+00  0.00000E+00  0.00000E+00  0.00000E+00    0.18135E+02  0.18947E+02 -0.37082E+02 -0.18525E+01  0.17684E+01  0.16295E+02      982.00
  0.47636E+00  0.62813E+02    0.26250E+00  0.26250E+00 -0.52500E+00  0.00000E+00  0.00000E+00  0.00000E+00    0.18221E+02  0.18976E+02 -0.37197E+02 -0.18755E+01  0.17236E+01  0.16456E+02      982.00
  0.49857E+00  0.63070E+02    0.27500E+00  0.27500E+00 -0.55000E+00  0.00000E+00  0.00000E+00  0.00000E+00    0.18305E+02  0.18997E+02 -0.37301E+02 -0.18970E+01  0.16843E+01  0.16609E+02      982.00
  0.52075E+00  0.63290E+02    0.28750E+00  0.28750E+00 -0.57500E+00  0.00000E+00  0.00000E+00  0.00000E+00    0.18372E+02  0.19019E+02 -0.37392E+02 -0.19254E+01  0.16657E+01  0.16733E+02      982.00
  0.54290E+00  0.63515E+02    0.30000E+00  0.30000E+00 -0.60000E+00  0.00000E+00  0.00000E+00  0.00000E+00    0.18453E+02  0.19026E+02 -0.37479E+02 -0.19408E+01  0.16375E+01  0.16871E+02      982.00
  0.56503E+00  0.63723E+02    0.31250E+00  0.31250E+00 -0.62500E+00  0.00000E+00  0.00000E+00  0.00000E+00    0.18533E+02  0.19026E+02 -0.37559E+02 -0.19536E+01  0.16154E+01  0.17001E+02      982.00
  0.58713E+00  0.63912E+02    0.32500E+00  0.32500E+00 -0.65000E+00  0.00000E+00  0.00000E+00  0.00000E+00    0.18633E+02  0.18994E+02 -0.37628E+02 -0.19533E+01  0.15847E+01  0.17127E+02      982.00
  0.60921E+00  0.64085E+02    0.33750E+00  0.33750E+00 -0.67500E+00  0.00000E+00  0.00000E+00  0.00000E+00    0.18714E+02  0.18979E+02 -0.37693E+02 -0.19614E+01  0.15752E+01  0.17235E+02      982.00
  0.63127E+00  0.64225E+02    0.35000E+00  0.35000E+00 -0.70000E+00  0.00000E+00  0.00000E+00  0.00000E+00    0.18763E+02  0.18984E+02 -0.37747E+02 -0.19765E+01  0.15802E+01  0.17318E+02      982.00
  0.65331E+00  0.64375E+02    0.36250E+00  0.36250E+00 -0.72500E+00  0.00000E+00  0.00000E+00  0.00000E+00    0.18841E+02  0.18961E+02 -0.37803E+02 -0.19812E+01  0.15767E+01  0.17413E+02      982.00
  0.67533E+00  0.64514E+02    0.37500E+00  0.37500E+00 -0.75000E+00  0.00000E+00  0.00000E+00  0.00000E+00    0.18919E+02  0.18935E+02 -0.37854E+02 -0.19850E+01  0.15759E+01  0.17499E+02      982.00
  0.69733E+00  0.64640E+02    0.38750E+00  0.38750E+00 -0.77500E+00  0.00000E+00  0.00000E+00  0.00000E+00    0.18996E+02  0.18905E+02 -0.37901E+02 -0.19883E+01  0.15769E+01  0.17577E+02      982.00
  0.71932E+00  0.64756E+02    0.40000E+00  0.40000E+00 -0.80000E+00  0.00000E+00  0.00000E+00  0.00000E+00    0.19072E+02  0.18873E+02 -0.37945E+02 -0.19914E+01  0.15790E+01  0.17648E+02      982.00
  0.74129E+00  0.64828E+02    0.41250E+00  0.41250E+00 -0.82500E+00  0.00000E+00  0.00000E+00  0.00000E+00    0.19145E+02  0.18829E+02 -0.37973E+02 -0.19904E+01  0.15815E+01  0.17690E+02      982.00
  0.76326E+00  0.64929E+02    0.42500E+00  0.42500E+00 -0.85000E+00  0.00000E+00  0.00000E+00  0.00000E+00    0.19219E+02  0.18793E+02 -0.38012E+02 -0.19948E+01  0.15847E+01  0.17749E+02      982.00
  0.78521E+00  0.65019E+02    0.43750E+00  0.43750E+00 -0.87500E+00  0.00000E+00  0.00000E+00  0.00000E+00    0.19292E+02  0.18755E+02 -0.38047E+02 -0.19996E+01  0.15876E+01  0.17801E+02      982.00
  0.80716E+00  0.65101E+02    0.45000E+00  0.45000E+00 -0.90000E+00  0.00000E+00  0.00000E+00  0.00000E+00    0.19362E+02  0.18717E+02 -0.38080E+02 -0.20050E+01  0.15900E+01  0.17847E+02      982.00
  0.82909E+00  0.65165E+02    0.46250E+00  0.46250E+00 -0.92500E+00  0.00000E+00  0.00000E+00  0.00000E+00    0.19442E+02  0.18664E+02 -0.38106E+02 -0.20091E+01  0.15921E+01  0.17881E+02      982.00
  0.85102E+00  0.65254E+02    0.47500E+00  0.47500E+00 -0.95000E+00  0.00000E+00  0.00000E+00  0.00000E+00    0.19542E+02  0.18599E+02 -0.38141E+02 -0.20165E+01  0.15941E+01  0.17931E+02      982.00
  0.87294E+00  0.65252E+02    0.48750E+00  0.48750E+00 -0.97500E+00  0.00000E+00  0.00000E+00  0.00000E+00    0.19513E+02  0.18628E+02 -0.38141E+02 -0.20136E+01  0.15954E+01  0.17928E+02      982.00
  0.89486E+00  0.65291E+02    0.50000E+00  0.50000E+00 -0.10000E+01  0.00000E+00  0.00000E+00  0.00000E+00    0.19617E+02  0.18533E+02 -0.38150E+02 -0.20159E+01  0.15909E+01  0.17958E+02      982.00
