          Evm          Svm            E11          E22          E33          E23          E13          E12         SDEV11       SDEV22       SDEV33       SDEV23       SDEV13       SDEV12      TEMP
  0.00000E+00  0.59679E+02    0.00000E+00  0.00000E+00  0.00000E+00  0.00000E+00  0.00000E+00  0.00000E+00    0.23542E+02  0.14799E+02 -0.38341E+02 -0.66412E+01  0.40902E+01  0.21675E+01      982.00
  0.24092E-01  0.59352E+02    0.12500E-01  0.12500E-01 -0.25000E-01  0.00000E+00  0.00000E+00  0.00000E+00    0.23648E+02  0.14547E+02 -0.38195E+02 -0.62595E+01  0.39293E+01  0.21730E+01      982.00
  0.48225E-01  0.59091E+02    0.25000E-01  0.25000E-01 -0.50000E-01  0.00000E+00  0.00000E+00  0.00000E+00    0.23748E+02  0.14331E+02 -0.38079E+02 -0.59486E+01  0.37511E+01  0.21883E+01      982.00
  0.72390E-01  0.58923E+02    0.37500E-01  0.37500E-01 -0.75000E-01  0.00000E+00  0.00000E+00  0.00000E+00    0.23867E+02  0.14145E+02 -0.38012E+02 -0.56790E+01  0.35854E+01  0.22037E+01      982.00
  0.96583E-01  0.58875E+02    0.50000E-01  0.50000E-01 -0.10000E+00  0.00000E+00  0.00000E+00  0.00000E+00    0.24007E+02  0.14001E+02 -0.38008E+02 -0.54851E+01  0.34532E+01  0.22140E+01      982.00
  0.12079E+00  0.58961E+02    0.62500E-01  0.62500E-01 -0.12500E+00  0.00000E+00  0.00000E+00  0.00000E+00    0.24188E+02  0.13897E+02 -0.38084E+02 -0.53288E+01  0.33461E+01  0.22159E+01      982.00
  0.14501E+00  0.59167E+02    0.75000E-01  0.75000E-01 -0.15000E+00  0.00000E+00  0.00000E+00  0.00000E+00    0.24400E+02  0.13827E+02 -0.38227E+02 -0.52334E+01  0.32752E+01  0.22098E+01      982.00
  0.16924E+00  0.59486E+02    0.87500E-01  0.87500E-01 -0.17500E+00  0.00000E+00  0.00000E+00  0.00000E+00    0.24643E+02  0.13793E+02 -0.38436E+02 -0.51791E+01  0.32307E+01  0.21946E+01      982.00
  0.19347E+00  0.59869E+02    0.10000E+00  0.10000E+00 -0.20000E+00  0.00000E+00  0.00000E+00  0.00000E+00    0.24904E+02  0.13780E+02 -0.38684E+02 -0.51507E+01  0.32041E+01  0.21650E+01      982.00
  0.21770E+00  0.60323E+02    0.11250E+00  0.11250E+00 -0.22500E+00  0.00000E+00  0.00000E+00  0.00000E+00    0.25177E+02  0.13798E+02 -0.38975E+02 -0.51533E+01  0.31958E+01  0.21317E+01      982.00
  0.24193E+00  0.60802E+02    0.12500E+00  0.12500E+00 -0.25000E+00  0.00000E+00  0.00000E+00  0.00000E+00    0.25449E+02  0.13831E+02 -0.39280E+02 -0.51724E+01  0.31958E+01  0.20915E+01      982.00
  0.26616E+00  0.61287E+02    0.13750E+00  0.13750E+00 -0.27500E+00  0.00000E+00  0.00000E+00  0.00000E+00    0.25713E+02  0.13877E+02 -0.39590E+02 -0.52027E+01  0.32004E+01  0.20451E+01      982.00
  0.29038E+00  0.61770E+02    0.15000E+00  0.15000E+00 -0.30000E+00  0.00000E+00  0.00000E+00  0.00000E+00    0.25975E+02  0.13922E+02 -0.39897E+02 -0.52429E+01  0.32089E+01  0.19865E+01      982.00
  0.31460E+00  0.62233E+02    0.16250E+00  0.16250E+00 -0.32500E+00  0.00000E+00  0.00000E+00  0.00000E+00    0.26211E+02  0.13983E+02 -0.40194E+02 -0.52781E+01  0.32125E+01  0.19323E+01      982.00
  0.33882E+00  0.62671E+02    0.17500E+00  0.17500E+00 -0.35000E+00  0.00000E+00  0.00000E+00  0.00000E+00    0.26431E+02  0.14045E+02 -0.40476E+02 -0.53176E+01  0.32157E+01  0.18759E+01      982.00
  0.36304E+00  0.63061E+02    0.18750E+00  0.18750E+00 -0.37500E+00  0.00000E+00  0.00000E+00  0.00000E+00    0.26623E+02  0.14105E+02 -0.40728E+02 -0.53523E+01  0.32171E+01  0.18209E+01      982.00
  0.38726E+00  0.63451E+02    0.20000E+00  0.20000E+00 -0.40000E+00  0.00000E+00  0.00000E+00  0.00000E+00    0.26812E+02  0.14169E+02 -0.40981E+02 -0.53875E+01  0.32150E+01  0.17622E+01      982.00
  0.41148E+00  0.63817E+02    0.21250E+00  0.21250E+00 -0.42500E+00  0.00000E+00  0.00000E+00  0.00000E+00    0.26995E+02  0.14222E+02 -0.41217E+02 -0.54290E+01  0.32112E+01  0.16893E+01      982.00
  0.43570E+00  0.64148E+02    0.22500E+00  0.22500E+00 -0.45000E+00  0.00000E+00  0.00000E+00  0.00000E+00    0.27152E+02  0.14282E+02 -0.41434E+02 -0.54583E+01  0.32021E+01  0.16286E+01      982.00
  0.45992E+00  0.64445E+02    0.23750E+00  0.23750E+00 -0.47500E+00  0.00000E+00  0.00000E+00  0.00000E+00    0.27292E+02  0.14336E+02 -0.41628E+02 -0.54841E+01  0.31901E+01  0.15679E+01      982.00
  0.48415E+00  0.64720E+02    0.25000E+00  0.25000E+00 -0.50000E+00  0.00000E+00  0.00000E+00  0.00000E+00    0.27421E+02  0.14389E+02 -0.41810E+02 -0.55085E+01  0.31756E+01  0.15066E+01      982.00
  0.50837E+00  0.64977E+02    0.26250E+00  0.26250E+00 -0.52500E+00  0.00000E+00  0.00000E+00  0.00000E+00    0.27539E+02  0.14442E+02 -0.41981E+02 -0.55297E+01  0.31588E+01  0.14461E+01      982.00
  0.53260E+00  0.65223E+02    0.27500E+00  0.27500E+00 -0.55000E+00  0.00000E+00  0.00000E+00  0.00000E+00    0.27660E+02  0.14484E+02 -0.42143E+02 -0.55564E+01  0.31341E+01  0.13691E+01      982.00
  0.55683E+00  0.65437E+02    0.28750E+00  0.28750E+00 -0.57500E+00  0.00000E+00  0.00000E+00  0.00000E+00    0.27758E+02  0.14528E+02 -0.42286E+02 -0.55773E+01  0.31162E+01  0.13065E+01      982.00
  0.58106E+00  0.65626E+02    0.30000E+00  0.30000E+00 -0.60000E+00  0.00000E+00  0.00000E+00  0.00000E+00    0.27844E+02  0.14568E+02 -0.42413E+02 -0.55915E+01  0.30949E+01  0.12459E+01      982.00
  0.60530E+00  0.65798E+02    0.31250E+00  0.31250E+00 -0.62500E+00  0.00000E+00  0.00000E+00  0.00000E+00    0.27923E+02  0.14606E+02 -0.42529E+02 -0.56054E+01  0.30725E+01  0.11860E+01      982.00
  0.62954E+00  0.65967E+02    0.32500E+00  0.32500E+00 -0.65000E+00  0.00000E+00  0.00000E+00  0.00000E+00    0.27999E+02  0.14644E+02 -0.42643E+02 -0.56189E+01  0.30488E+01  0.11269E+01      982.00
  0.65378E+00  0.66112E+02    0.33750E+00  0.33750E+00 -0.67500E+00  0.00000E+00  0.00000E+00  0.00000E+00    0.28065E+02  0.14677E+02 -0.42742E+02 -0.56314E+01  0.30256E+01  0.10670E+01      982.00
  0.67802E+00  0.66230E+02    0.35000E+00  0.35000E+00 -0.70000E+00  0.00000E+00  0.00000E+00  0.00000E+00    0.28119E+02  0.14700E+02 -0.42820E+02 -0.56443E+01  0.30117E+01  0.10163E+01      982.00
  0.70227E+00  0.66364E+02    0.36250E+00  0.36250E+00 -0.72500E+00  0.00000E+00  0.00000E+00  0.00000E+00    0.28179E+02  0.14732E+02 -0.42911E+02 -0.56550E+01  0.29873E+01  0.95823E+00      982.00
  0.72651E+00  0.66480E+02    0.37500E+00  0.37500E+00 -0.75000E+00  0.00000E+00  0.00000E+00  0.00000E+00    0.28231E+02  0.14759E+02 -0.42991E+02 -0.56658E+01  0.29628E+01  0.89959E+00      982.00
  0.75076E+00  0.66586E+02    0.38750E+00  0.38750E+00 -0.77500E+00  0.00000E+00  0.00000E+00  0.00000E+00    0.28279E+02  0.14783E+02 -0.43063E+02 -0.56767E+01  0.29382E+01  0.84155E+00      982.00
  0.77502E+00  0.66688E+02    0.40000E+00  0.40000E+00 -0.80000E+00  0.00000E+00  0.00000E+00  0.00000E+00    0.28325E+02  0.14807E+02 -0.43132E+02 -0.56872E+01  0.29135E+01  0.78363E+00      982.00
  0.79927E+00  0.66783E+02    0.41250E+00  0.41250E+00 -0.82500E+00  0.00000E+00  0.00000E+00  0.00000E+00    0.28369E+02  0.14828E+02 -0.43197E+02 -0.56972E+01  0.28891E+01  0.72606E+00      982.00
  0.82353E+00  0.66872E+02    0.42500E+00  0.42500E+00 -0.85000E+00  0.00000E+00  0.00000E+00  0.00000E+00    0.28409E+02  0.14849E+02 -0.43258E+02 -0.57066E+01  0.28644E+01  0.66879E+00      982.00
  0.84778E+00  0.66947E+02    0.43750E+00  0.43750E+00 -0.87500E+00  0.00000E+00  0.00000E+00  0.00000E+00    0.28442E+02  0.14867E+02 -0.43309E+02 -0.57168E+01  0.28403E+01  0.61189E+00      982.00
  0.87204E+00  0.66951E+02    0.45000E+00  0.45000E+00 -0.90000E+00  0.00000E+00  0.00000E+00  0.00000E+00    0.28445E+02  0.14879E+02 -0.43323E+02 -0.56792E+01  0.28021E+01  0.57651E+00      982.00
  0.89631E+00  0.66965E+02    0.46250E+00  0.46250E+00 -0.92500E+00  0.00000E+00  0.00000E+00  0.00000E+00    0.28454E+02  0.14886E+02 -0.43340E+02 -0.56597E+01  0.27680E+01  0.52808E+00      982.00
  0.92058E+00  0.66970E+02    0.47500E+00  0.47500E+00 -0.95000E+00  0.00000E+00  0.00000E+00  0.00000E+00    0.28461E+02  0.14889E+02 -0.43350E+02 -0.56448E+01  0.27329E+01  0.47866E+00      982.00
  0.94485E+00  0.66987E+02    0.48750E+00  0.48750E+00 -0.97500E+00  0.00000E+00  0.00000E+00  0.00000E+00    0.28470E+02  0.14897E+02 -0.43367E+02 -0.56331E+01  0.27014E+01  0.42092E+00      982.00
  0.96913E+00  0.66994E+02    0.50000E+00  0.50000E+00 -0.10000E+01  0.00000E+00  0.00000E+00  0.00000E+00    0.28476E+02  0.14900E+02 -0.43376E+02 -0.56205E+01  0.26688E+01  0.37243E+00      982.00
