          Evm          Svm            E11          E22          E33          E23          E13          E12         SDEV11       SDEV22       SDEV33       SDEV23       SDEV13       SDEV12      TEMP
  0.00000E+00  0.64446E+02    0.00000E+00  0.00000E+00  0.00000E+00  0.00000E+00  0.00000E+00  0.00000E+00    0.21830E+02  0.19534E+02 -0.41364E+02  0.39789E+01  0.47187E+01 -0.78604E+01      982.00
  0.24069E-01  0.64213E+02    0.12500E-01  0.12500E-01 -0.25000E-01  0.00000E+00  0.00000E+00  0.00000E+00    0.21681E+02  0.19635E+02 -0.41316E+02  0.39673E+01  0.45715E+01 -0.75171E+01      982.00
  0.48197E-01  0.64076E+02    0.25000E-01  0.25000E-01 -0.50000E-01  0.00000E+00  0.00000E+00  0.00000E+00    0.21607E+02  0.19705E+02 -0.41312E+02  0.39992E+01  0.44723E+01 -0.71907E+01      982.00
  0.72374E-01  0.64044E+02    0.37500E-01  0.37500E-01 -0.75000E-01  0.00000E+00  0.00000E+00  0.00000E+00    0.21581E+02  0.19768E+02 -0.41349E+02  0.40712E+01  0.44220E+01 -0.69237E+01      982.00
  0.96586E-01  0.64080E+02    0.50000E-01  0.50000E-01 -0.10000E+00  0.00000E+00  0.00000E+00  0.00000E+00    0.21582E+02  0.19829E+02 -0.41411E+02  0.41602E+01  0.43992E+01 -0.67220E+01      982.00
  0.12082E+00  0.64174E+02    0.62500E-01  0.62500E-01 -0.12500E+00  0.00000E+00  0.00000E+00  0.00000E+00    0.21609E+02  0.19885E+02 -0.41494E+02  0.42428E+01  0.43954E+01 -0.65861E+01      982.00
  0.14507E+00  0.64299E+02    0.75000E-01  0.75000E-01 -0.15000E+00  0.00000E+00  0.00000E+00  0.00000E+00    0.21650E+02  0.19937E+02 -0.41588E+02  0.43103E+01  0.43996E+01 -0.65039E+01      982.00
  0.16932E+00  0.64481E+02    0.87500E-01  0.87500E-01 -0.17500E+00  0.00000E+00  0.00000E+00  0.00000E+00    0.21713E+02  0.19997E+02 -0.41710E+02  0.43654E+01  0.44131E+01 -0.64722E+01      982.00
  0.19358E+00  0.64721E+02    0.10000E+00  0.10000E+00 -0.20000E+00  0.00000E+00  0.00000E+00  0.00000E+00    0.21782E+02  0.20080E+02 -0.41861E+02  0.44209E+01  0.44334E+01 -0.64874E+01      982.00
  0.21783E+00  0.64963E+02    0.11250E+00  0.11250E+00 -0.22500E+00  0.00000E+00  0.00000E+00  0.00000E+00    0.21848E+02  0.20167E+02 -0.42014E+02  0.44499E+01  0.44465E+01 -0.65215E+01      982.00
  0.24209E+00  0.65222E+02    0.12500E+00  0.12500E+00 -0.25000E+00  0.00000E+00  0.00000E+00  0.00000E+00    0.21912E+02  0.20266E+02 -0.42178E+02  0.44693E+01  0.44589E+01 -0.65711E+01      982.00
  0.26634E+00  0.65492E+02    0.13750E+00  0.13750E+00 -0.27500E+00  0.00000E+00  0.00000E+00  0.00000E+00    0.21971E+02  0.20378E+02 -0.42349E+02  0.44819E+01  0.44701E+01 -0.66291E+01      982.00
  0.29059E+00  0.65739E+02    0.15000E+00  0.15000E+00 -0.30000E+00  0.00000E+00  0.00000E+00  0.00000E+00    0.22022E+02  0.20487E+02 -0.42509E+02  0.44825E+01  0.44760E+01 -0.66781E+01      982.00
  0.31483E+00  0.66014E+02    0.16250E+00  0.16250E+00 -0.32500E+00  0.00000E+00  0.00000E+00  0.00000E+00    0.22064E+02  0.20619E+02 -0.42683E+02  0.44864E+01  0.44865E+01 -0.67413E+01      982.00
  0.33908E+00  0.66281E+02    0.17500E+00  0.17500E+00 -0.35000E+00  0.00000E+00  0.00000E+00  0.00000E+00    0.22102E+02  0.20752E+02 -0.42854E+02  0.44837E+01  0.44963E+01 -0.67994E+01      982.00
  0.36333E+00  0.66536E+02    0.18750E+00  0.18750E+00 -0.37500E+00  0.00000E+00  0.00000E+00  0.00000E+00    0.22120E+02  0.20897E+02 -0.43017E+02  0.44810E+01  0.45076E+01 -0.68580E+01      982.00
  0.38757E+00  0.66777E+02    0.20000E+00  0.20000E+00 -0.40000E+00  0.00000E+00  0.00000E+00  0.00000E+00    0.22124E+02  0.21048E+02 -0.43172E+02  0.44762E+01  0.45190E+01 -0.69117E+01      982.00
  0.41182E+00  0.67001E+02    0.21250E+00  0.21250E+00 -0.42500E+00  0.00000E+00  0.00000E+00  0.00000E+00    0.22114E+02  0.21202E+02 -0.43316E+02  0.44693E+01  0.45309E+01 -0.69598E+01      982.00
  0.43606E+00  0.67208E+02    0.22500E+00  0.22500E+00 -0.45000E+00  0.00000E+00  0.00000E+00  0.00000E+00    0.22090E+02  0.21360E+02 -0.43450E+02  0.44605E+01  0.45432E+01 -0.70019E+01      982.00
  0.46030E+00  0.67396E+02    0.23750E+00  0.23750E+00 -0.47500E+00  0.00000E+00  0.00000E+00  0.00000E+00    0.22053E+02  0.21519E+02 -0.43572E+02  0.44502E+01  0.45561E+01 -0.70379E+01      982.00
  0.48455E+00  0.67567E+02    0.25000E+00  0.25000E+00 -0.50000E+00  0.00000E+00  0.00000E+00  0.00000E+00    0.22003E+02  0.21680E+02 -0.43684E+02  0.44385E+01  0.45696E+01 -0.70679E+01      982.00
  0.50879E+00  0.67717E+02    0.26250E+00  0.26250E+00 -0.52500E+00  0.00000E+00  0.00000E+00  0.00000E+00    0.21946E+02  0.21837E+02 -0.43783E+02  0.44241E+01  0.45807E+01 -0.70919E+01      982.00
  0.53304E+00  0.67856E+02    0.27500E+00  0.27500E+00 -0.55000E+00  0.00000E+00  0.00000E+00  0.00000E+00    0.21873E+02  0.22000E+02 -0.43873E+02  0.44103E+01  0.45955E+01 -0.71113E+01      982.00
  0.55728E+00  0.67979E+02    0.28750E+00  0.28750E+00 -0.57500E+00  0.00000E+00  0.00000E+00  0.00000E+00    0.21790E+02  0.22165E+02 -0.43954E+02  0.43955E+01  0.46105E+01 -0.71254E+01      982.00
  0.58153E+00  0.68087E+02    0.30000E+00  0.30000E+00 -0.60000E+00  0.00000E+00  0.00000E+00  0.00000E+00    0.21696E+02  0.22330E+02 -0.44026E+02  0.43797E+01  0.46256E+01 -0.71345E+01      982.00
  0.60578E+00  0.68182E+02    0.31250E+00  0.31250E+00 -0.62500E+00  0.00000E+00  0.00000E+00  0.00000E+00    0.21594E+02  0.22495E+02 -0.44089E+02  0.43631E+01  0.46408E+01 -0.71387E+01      982.00
  0.63003E+00  0.68264E+02    0.32500E+00  0.32500E+00 -0.65000E+00  0.00000E+00  0.00000E+00  0.00000E+00    0.21483E+02  0.22661E+02 -0.44143E+02  0.43452E+01  0.46553E+01 -0.71380E+01      982.00
  0.65428E+00  0.68336E+02    0.33750E+00  0.33750E+00 -0.67500E+00  0.00000E+00  0.00000E+00  0.00000E+00    0.21364E+02  0.22827E+02 -0.44191E+02  0.43269E+01  0.46704E+01 -0.71335E+01      982.00
  0.67853E+00  0.68398E+02    0.35000E+00  0.35000E+00 -0.70000E+00  0.00000E+00  0.00000E+00  0.00000E+00    0.21239E+02  0.22993E+02 -0.44233E+02  0.43079E+01  0.46852E+01 -0.71248E+01      982.00
  0.70278E+00  0.68451E+02    0.36250E+00  0.36250E+00 -0.72500E+00  0.00000E+00  0.00000E+00  0.00000E+00    0.21108E+02  0.23160E+02 -0.44268E+02  0.42882E+01  0.46998E+01 -0.71122E+01      982.00
  0.72703E+00  0.68495E+02    0.37500E+00  0.37500E+00 -0.75000E+00  0.00000E+00  0.00000E+00  0.00000E+00    0.20971E+02  0.23327E+02 -0.44297E+02  0.42678E+01  0.47140E+01 -0.70958E+01      982.00
  0.75128E+00  0.68532E+02    0.38750E+00  0.38750E+00 -0.77500E+00  0.00000E+00  0.00000E+00  0.00000E+00    0.20829E+02  0.23493E+02 -0.44322E+02  0.42468E+01  0.47279E+01 -0.70757E+01      982.00
  0.77553E+00  0.68563E+02    0.40000E+00  0.40000E+00 -0.80000E+00  0.00000E+00  0.00000E+00  0.00000E+00    0.20683E+02  0.23659E+02 -0.44342E+02  0.42253E+01  0.47412E+01 -0.70520E+01      982.00
  0.79979E+00  0.68587E+02    0.41250E+00  0.41250E+00 -0.82500E+00  0.00000E+00  0.00000E+00  0.00000E+00    0.20533E+02  0.23825E+02 -0.44358E+02  0.42033E+01  0.47541E+01 -0.70249E+01      982.00
  0.82404E+00  0.68610E+02    0.42500E+00  0.42500E+00 -0.85000E+00  0.00000E+00  0.00000E+00  0.00000E+00    0.20380E+02  0.23993E+02 -0.44374E+02  0.41884E+01  0.47589E+01 -0.69904E+01      982.00
  0.84829E+00  0.68625E+02    0.43750E+00  0.43750E+00 -0.87500E+00  0.00000E+00  0.00000E+00  0.00000E+00    0.20226E+02  0.24158E+02 -0.44383E+02  0.41655E+01  0.47705E+01 -0.69571E+01      982.00
  0.87255E+00  0.68636E+02    0.45000E+00  0.45000E+00 -0.90000E+00  0.00000E+00  0.00000E+00  0.00000E+00    0.20070E+02  0.24320E+02 -0.44390E+02  0.41418E+01  0.47820E+01 -0.69212E+01      982.00
  0.89680E+00  0.68585E+02    0.46250E+00  0.46250E+00 -0.92500E+00  0.00000E+00  0.00000E+00  0.00000E+00    0.19911E+02  0.24450E+02 -0.44361E+02  0.40988E+01  0.47749E+01 -0.68752E+01      982.00
  0.92105E+00  0.68536E+02    0.47500E+00  0.47500E+00 -0.95000E+00  0.00000E+00  0.00000E+00  0.00000E+00    0.19752E+02  0.24581E+02 -0.44333E+02  0.40594E+01  0.47683E+01 -0.68259E+01      982.00
  0.94531E+00  0.68488E+02    0.48750E+00  0.48750E+00 -0.97500E+00  0.00000E+00  0.00000E+00  0.00000E+00    0.19594E+02  0.24712E+02 -0.44305E+02  0.40209E+01  0.47616E+01 -0.67752E+01      982.00
  0.96957E+00  0.68441E+02    0.50000E+00  0.50000E+00 -0.10000E+01  0.00000E+00  0.00000E+00  0.00000E+00    0.19437E+02  0.24841E+02 -0.44278E+02  0.39830E+01  0.47550E+01 -0.67233E+01      982.00
