          Evm          Svm            E11          E22          E33          E23          E13          E12         SDEV11       SDEV22       SDEV33       SDEV23       SDEV13       SDEV12      TEMP
  0.00000E+00  0.60110E+02    0.00000E+00  0.00000E+00  0.00000E+00  0.00000E+00  0.00000E+00  0.00000E+00    0.22194E+02  0.14531E+02 -0.36724E+02 -0.28672E+01  0.87266E+00  0.13009E+02      982.00
  0.22911E-01  0.60229E+02    0.12500E-01  0.12500E-01 -0.25000E-01  0.00000E+00  0.00000E+00  0.00000E+00    0.22030E+02  0.14714E+02 -0.36744E+02 -0.28702E+01  0.88394E+00  0.13196E+02      982.00
  0.45789E-01  0.60385E+02    0.25000E-01  0.25000E-01 -0.50000E-01  0.00000E+00  0.00000E+00  0.00000E+00    0.21931E+02  0.14863E+02 -0.36794E+02 -0.28643E+01  0.91388E+00  0.13363E+02      982.00
  0.68638E-01  0.60563E+02    0.37500E-01  0.37500E-01 -0.75000E-01  0.00000E+00  0.00000E+00  0.00000E+00    0.21872E+02  0.14996E+02 -0.36868E+02 -0.28538E+01  0.97558E+00  0.13499E+02      982.00
  0.91467E-01  0.60731E+02    0.50000E-01  0.50000E-01 -0.10000E+00  0.00000E+00  0.00000E+00  0.00000E+00    0.21855E+02  0.15100E+02 -0.36955E+02 -0.28359E+01  0.10668E+01  0.13585E+02      982.00
  0.11429E+00  0.60884E+02    0.62500E-01  0.62500E-01 -0.12500E+00  0.00000E+00  0.00000E+00  0.00000E+00    0.21910E+02  0.15144E+02 -0.37055E+02 -0.28063E+01  0.11820E+01  0.13606E+02      982.00
  0.13711E+00  0.60989E+02    0.75000E-01  0.75000E-01 -0.15000E+00  0.00000E+00  0.00000E+00  0.00000E+00    0.22037E+02  0.15103E+02 -0.37140E+02 -0.27442E+01  0.13133E+01  0.13568E+02      982.00
  0.15995E+00  0.61133E+02    0.87500E-01  0.87500E-01 -0.17500E+00  0.00000E+00  0.00000E+00  0.00000E+00    0.22216E+02  0.15038E+02 -0.37254E+02 -0.26535E+01  0.14362E+01  0.13523E+02      982.00
  0.18280E+00  0.61268E+02    0.10000E+00  0.10000E+00 -0.20000E+00  0.00000E+00  0.00000E+00  0.00000E+00    0.22412E+02  0.14945E+02 -0.37357E+02 -0.25244E+01  0.15436E+01  0.13488E+02      982.00
  0.20566E+00  0.61431E+02    0.11250E+00  0.11250E+00 -0.22500E+00  0.00000E+00  0.00000E+00  0.00000E+00    0.22635E+02  0.14834E+02 -0.37469E+02 -0.23769E+01  0.16318E+01  0.13470E+02      982.00
  0.22853E+00  0.61621E+02    0.12500E+00  0.12500E+00 -0.25000E+00  0.00000E+00  0.00000E+00  0.00000E+00    0.22866E+02  0.14720E+02 -0.37585E+02 -0.22275E+01  0.16940E+01  0.13483E+02      982.00
  0.25141E+00  0.61840E+02    0.13750E+00  0.13750E+00 -0.27500E+00  0.00000E+00  0.00000E+00  0.00000E+00    0.23093E+02  0.14614E+02 -0.37707E+02 -0.20881E+01  0.17312E+01  0.13529E+02      982.00
  0.27427E+00  0.62075E+02    0.15000E+00  0.15000E+00 -0.30000E+00  0.00000E+00  0.00000E+00  0.00000E+00    0.23306E+02  0.14521E+02 -0.37827E+02 -0.19642E+01  0.17476E+01  0.13604E+02      982.00
  0.29713E+00  0.62316E+02    0.16250E+00  0.16250E+00 -0.32500E+00  0.00000E+00  0.00000E+00  0.00000E+00    0.23506E+02  0.14438E+02 -0.37944E+02 -0.18600E+01  0.17457E+01  0.13695E+02      982.00
  0.31996E+00  0.62574E+02    0.17500E+00  0.17500E+00 -0.35000E+00  0.00000E+00  0.00000E+00  0.00000E+00    0.23688E+02  0.14378E+02 -0.38065E+02 -0.17743E+01  0.17324E+01  0.13806E+02      982.00
  0.34277E+00  0.62825E+02    0.18750E+00  0.18750E+00 -0.37500E+00  0.00000E+00  0.00000E+00  0.00000E+00    0.23849E+02  0.14330E+02 -0.38180E+02 -0.17059E+01  0.17082E+01  0.13925E+02      982.00
  0.36556E+00  0.63067E+02    0.20000E+00  0.20000E+00 -0.40000E+00  0.00000E+00  0.00000E+00  0.00000E+00    0.23992E+02  0.14294E+02 -0.38286E+02 -0.16511E+01  0.16756E+01  0.14051E+02      982.00
  0.38833E+00  0.63313E+02    0.21250E+00  0.21250E+00 -0.42500E+00  0.00000E+00  0.00000E+00  0.00000E+00    0.24118E+02  0.14274E+02 -0.38392E+02 -0.16074E+01  0.16374E+01  0.14185E+02      982.00
  0.41106E+00  0.63565E+02    0.22500E+00  0.22500E+00 -0.45000E+00  0.00000E+00  0.00000E+00  0.00000E+00    0.24234E+02  0.14268E+02 -0.38501E+02 -0.15711E+01  0.15957E+01  0.14326E+02      982.00
  0.43378E+00  0.63769E+02    0.23750E+00  0.23750E+00 -0.47500E+00  0.00000E+00  0.00000E+00  0.00000E+00    0.24318E+02  0.14274E+02 -0.38591E+02 -0.15470E+01  0.15627E+01  0.14439E+02      982.00
  0.45647E+00  0.64003E+02    0.25000E+00  0.25000E+00 -0.50000E+00  0.00000E+00  0.00000E+00  0.00000E+00    0.24408E+02  0.14283E+02 -0.38691E+02 -0.15227E+01  0.15192E+01  0.14576E+02      982.00
  0.47914E+00  0.64220E+02    0.26250E+00  0.26250E+00 -0.52500E+00  0.00000E+00  0.00000E+00  0.00000E+00    0.24486E+02  0.14306E+02 -0.38792E+02 -0.15049E+01  0.14858E+01  0.14689E+02      982.00
  0.50179E+00  0.64422E+02    0.27500E+00  0.27500E+00 -0.55000E+00  0.00000E+00  0.00000E+00  0.00000E+00    0.24554E+02  0.14330E+02 -0.38884E+02 -0.14884E+01  0.14535E+01  0.14797E+02      982.00
  0.52443E+00  0.64613E+02    0.28750E+00  0.28750E+00 -0.57500E+00  0.00000E+00  0.00000E+00  0.00000E+00    0.24619E+02  0.14356E+02 -0.38975E+02 -0.14726E+01  0.14220E+01  0.14893E+02      982.00
  0.54705E+00  0.64789E+02    0.30000E+00  0.30000E+00 -0.60000E+00  0.00000E+00  0.00000E+00  0.00000E+00    0.24676E+02  0.14383E+02 -0.39059E+02 -0.14568E+01  0.13911E+01  0.14983E+02      982.00
  0.56966E+00  0.64963E+02    0.31250E+00  0.31250E+00 -0.62500E+00  0.00000E+00  0.00000E+00  0.00000E+00    0.24731E+02  0.14413E+02 -0.39144E+02 -0.14399E+01  0.13610E+01  0.15066E+02      982.00
  0.59225E+00  0.65123E+02    0.32500E+00  0.32500E+00 -0.65000E+00  0.00000E+00  0.00000E+00  0.00000E+00    0.24782E+02  0.14444E+02 -0.39226E+02 -0.14225E+01  0.13320E+01  0.15138E+02      982.00
  0.61484E+00  0.65269E+02    0.33750E+00  0.33750E+00 -0.67500E+00  0.00000E+00  0.00000E+00  0.00000E+00    0.24828E+02  0.14472E+02 -0.39300E+02 -0.14029E+01  0.13024E+01  0.15203E+02      982.00
  0.63742E+00  0.65432E+02    0.35000E+00  0.35000E+00 -0.70000E+00  0.00000E+00  0.00000E+00  0.00000E+00    0.24878E+02  0.14505E+02 -0.39383E+02 -0.13762E+01  0.12624E+01  0.15279E+02      982.00
  0.65999E+00  0.65562E+02    0.36250E+00  0.36250E+00 -0.72500E+00  0.00000E+00  0.00000E+00  0.00000E+00    0.24920E+02  0.14536E+02 -0.39456E+02 -0.13526E+01  0.12324E+01  0.15326E+02      982.00
  0.68256E+00  0.65687E+02    0.37500E+00  0.37500E+00 -0.75000E+00  0.00000E+00  0.00000E+00  0.00000E+00    0.24959E+02  0.14568E+02 -0.39527E+02 -0.13265E+01  0.12027E+01  0.15370E+02      982.00
  0.70512E+00  0.65802E+02    0.38750E+00  0.38750E+00 -0.77500E+00  0.00000E+00  0.00000E+00  0.00000E+00    0.24997E+02  0.14598E+02 -0.39595E+02 -0.12994E+01  0.11727E+01  0.15406E+02      982.00
  0.72769E+00  0.65895E+02    0.40000E+00  0.40000E+00 -0.80000E+00  0.00000E+00  0.00000E+00  0.00000E+00    0.25032E+02  0.14626E+02 -0.39658E+02 -0.12785E+01  0.11532E+01  0.15421E+02      982.00
  0.75026E+00  0.66000E+02    0.41250E+00  0.41250E+00 -0.82500E+00  0.00000E+00  0.00000E+00  0.00000E+00    0.25068E+02  0.14656E+02 -0.39724E+02 -0.12487E+01  0.11224E+01  0.15446E+02      982.00
  0.77283E+00  0.66099E+02    0.42500E+00  0.42500E+00 -0.85000E+00  0.00000E+00  0.00000E+00  0.00000E+00    0.25102E+02  0.14686E+02 -0.39789E+02 -0.12177E+01  0.10910E+01  0.15466E+02      982.00
  0.79540E+00  0.66192E+02    0.43750E+00  0.43750E+00 -0.87500E+00  0.00000E+00  0.00000E+00  0.00000E+00    0.25137E+02  0.14716E+02 -0.39853E+02 -0.11859E+01  0.10591E+01  0.15479E+02      982.00
  0.81798E+00  0.66284E+02    0.45000E+00  0.45000E+00 -0.90000E+00  0.00000E+00  0.00000E+00  0.00000E+00    0.25172E+02  0.14745E+02 -0.39918E+02 -0.11542E+01  0.10274E+01  0.15488E+02      982.00
  0.84056E+00  0.66369E+02    0.46250E+00  0.46250E+00 -0.92500E+00  0.00000E+00  0.00000E+00  0.00000E+00    0.25208E+02  0.14773E+02 -0.39982E+02 -0.11237E+01  0.99630E+00  0.15489E+02      982.00
  0.86315E+00  0.66452E+02    0.47500E+00  0.47500E+00 -0.95000E+00  0.00000E+00  0.00000E+00  0.00000E+00    0.25243E+02  0.14802E+02 -0.40045E+02 -0.10955E+01  0.96724E+00  0.15488E+02      982.00
  0.88575E+00  0.66530E+02    0.48750E+00  0.48750E+00 -0.97500E+00  0.00000E+00  0.00000E+00  0.00000E+00    0.25280E+02  0.14827E+02 -0.40107E+02 -0.10713E+01  0.94025E+00  0.15480E+02      982.00
  0.90836E+00  0.66601E+02    0.50000E+00  0.50000E+00 -0.10000E+01  0.00000E+00  0.00000E+00  0.00000E+00    0.25316E+02  0.14851E+02 -0.40167E+02 -0.10528E+01  0.91722E+00  0.15466E+02      982.00
