          Evm          Svm            E11          E22          E33          E23          E13          E12         SDEV11       SDEV22       SDEV33       SDEV23       SDEV13       SDEV12      TEMP
  0.00000E+00  0.55684E+02    0.00000E+00  0.00000E+00  0.00000E+00  0.00000E+00  0.00000E+00  0.00000E+00    0.15739E+02  0.16890E+02 -0.32628E+02  0.98414E+00  0.23495E+01  0.15109E+02      982.00
  0.21974E-01  0.55650E+02    0.12500E-01  0.12500E-01 -0.25000E-01  0.00000E+00  0.00000E+00  0.00000E+00    0.16312E+02  0.16309E+02 -0.32621E+02  0.18851E+00  0.27840E+01  0.15048E+02      982.00
  0.43955E-01  0.55631E+02    0.25000E-01  0.25000E-01 -0.50000E-01  0.00000E+00  0.00000E+00  0.00000E+00    0.16732E+02  0.15884E+02 -0.32616E+02 -0.35181E+00  0.30427E+01  0.14972E+02      982.00
  0.65941E-01  0.55701E+02    0.37500E-01  0.37500E-01 -0.75000E-01  0.00000E+00  0.00000E+00  0.00000E+00    0.17055E+02  0.15598E+02 -0.32653E+02 -0.74344E+00  0.31899E+01  0.14943E+02      982.00
  0.87925E-01  0.55886E+02    0.50000E-01  0.50000E-01 -0.10000E+00  0.00000E+00  0.00000E+00  0.00000E+00    0.17315E+02  0.15427E+02 -0.32742E+02 -0.10457E+01  0.32578E+01  0.14982E+02      982.00
  0.10989E+00  0.56189E+02    0.62500E-01  0.62500E-01 -0.12500E+00  0.00000E+00  0.00000E+00  0.00000E+00    0.17541E+02  0.15341E+02 -0.32882E+02 -0.12894E+01  0.32794E+01  0.15094E+02      982.00
  0.13184E+00  0.56578E+02    0.75000E-01  0.75000E-01 -0.15000E+00  0.00000E+00  0.00000E+00  0.00000E+00    0.17748E+02  0.15316E+02 -0.33064E+02 -0.14944E+01  0.32688E+01  0.15254E+02      982.00
  0.15376E+00  0.57014E+02    0.87500E-01  0.87500E-01 -0.17500E+00  0.00000E+00  0.00000E+00  0.00000E+00    0.17931E+02  0.15340E+02 -0.33270E+02 -0.16681E+01  0.32323E+01  0.15441E+02      982.00
  0.17564E+00  0.57487E+02    0.10000E+00  0.10000E+00 -0.20000E+00  0.00000E+00  0.00000E+00  0.00000E+00    0.18092E+02  0.15401E+02 -0.33494E+02 -0.18118E+01  0.31913E+01  0.15651E+02      982.00
  0.19749E+00  0.57983E+02    0.11250E+00  0.11250E+00 -0.22500E+00  0.00000E+00  0.00000E+00  0.00000E+00    0.18242E+02  0.15486E+02 -0.33728E+02 -0.19362E+01  0.31471E+01  0.15873E+02      982.00
  0.21930E+00  0.58487E+02    0.12500E+00  0.12500E+00 -0.25000E+00  0.00000E+00  0.00000E+00  0.00000E+00    0.18379E+02  0.15588E+02 -0.33968E+02 -0.20446E+01  0.31013E+01  0.16098E+02      982.00
  0.24108E+00  0.58987E+02    0.13750E+00  0.13750E+00 -0.27500E+00  0.00000E+00  0.00000E+00  0.00000E+00    0.18505E+02  0.15703E+02 -0.34207E+02 -0.21396E+01  0.30544E+01  0.16320E+02      982.00
  0.26283E+00  0.59473E+02    0.15000E+00  0.15000E+00 -0.30000E+00  0.00000E+00  0.00000E+00  0.00000E+00    0.18617E+02  0.15826E+02 -0.34443E+02 -0.22233E+01  0.30061E+01  0.16534E+02      982.00
  0.28454E+00  0.59940E+02    0.16250E+00  0.16250E+00 -0.32500E+00  0.00000E+00  0.00000E+00  0.00000E+00    0.18717E+02  0.15955E+02 -0.34671E+02 -0.22974E+01  0.29561E+01  0.16736E+02      982.00
  0.30623E+00  0.60383E+02    0.17500E+00  0.17500E+00 -0.35000E+00  0.00000E+00  0.00000E+00  0.00000E+00    0.18804E+02  0.16087E+02 -0.34891E+02 -0.23632E+01  0.29041E+01  0.16925E+02      982.00
  0.32790E+00  0.60800E+02    0.18750E+00  0.18750E+00 -0.37500E+00  0.00000E+00  0.00000E+00  0.00000E+00    0.18880E+02  0.16221E+02 -0.35101E+02 -0.24217E+01  0.28504E+01  0.17099E+02      982.00
  0.34955E+00  0.61190E+02    0.20000E+00  0.20000E+00 -0.40000E+00  0.00000E+00  0.00000E+00  0.00000E+00    0.18945E+02  0.16355E+02 -0.35301E+02 -0.24731E+01  0.27952E+01  0.17259E+02      982.00
  0.37119E+00  0.61553E+02    0.21250E+00  0.21250E+00 -0.42500E+00  0.00000E+00  0.00000E+00  0.00000E+00    0.19001E+02  0.16489E+02 -0.35489E+02 -0.25178E+01  0.27391E+01  0.17403E+02      982.00
  0.39281E+00  0.61889E+02    0.22500E+00  0.22500E+00 -0.45000E+00  0.00000E+00  0.00000E+00  0.00000E+00    0.19048E+02  0.16620E+02 -0.35668E+02 -0.25559E+01  0.26830E+01  0.17533E+02      982.00
  0.41442E+00  0.62199E+02    0.23750E+00  0.23750E+00 -0.47500E+00  0.00000E+00  0.00000E+00  0.00000E+00    0.19087E+02  0.16749E+02 -0.35836E+02 -0.25871E+01  0.26273E+01  0.17648E+02      982.00
  0.43603E+00  0.62487E+02    0.25000E+00  0.25000E+00 -0.50000E+00  0.00000E+00  0.00000E+00  0.00000E+00    0.19121E+02  0.16874E+02 -0.35995E+02 -0.26121E+01  0.25735E+01  0.17751E+02      982.00
  0.45763E+00  0.62753E+02    0.26250E+00  0.26250E+00 -0.52500E+00  0.00000E+00  0.00000E+00  0.00000E+00    0.19150E+02  0.16995E+02 -0.36145E+02 -0.26307E+01  0.25218E+01  0.17843E+02      982.00
  0.47923E+00  0.62992E+02    0.27500E+00  0.27500E+00 -0.55000E+00  0.00000E+00  0.00000E+00  0.00000E+00    0.19167E+02  0.17116E+02 -0.36283E+02 -0.26457E+01  0.24651E+01  0.17921E+02      982.00
  0.50083E+00  0.63219E+02    0.28750E+00  0.28750E+00 -0.57500E+00  0.00000E+00  0.00000E+00  0.00000E+00    0.19190E+02  0.17228E+02 -0.36417E+02 -0.26527E+01  0.24189E+01  0.17992E+02      982.00
  0.52243E+00  0.63429E+02    0.30000E+00  0.30000E+00 -0.60000E+00  0.00000E+00  0.00000E+00  0.00000E+00    0.19210E+02  0.17334E+02 -0.36544E+02 -0.26542E+01  0.23761E+01  0.18053E+02      982.00
  0.54403E+00  0.63623E+02    0.31250E+00  0.31250E+00 -0.62500E+00  0.00000E+00  0.00000E+00  0.00000E+00    0.19229E+02  0.17434E+02 -0.36663E+02 -0.26511E+01  0.23361E+01  0.18106E+02      982.00
  0.56564E+00  0.63780E+02    0.32500E+00  0.32500E+00 -0.65000E+00  0.00000E+00  0.00000E+00  0.00000E+00    0.19238E+02  0.17527E+02 -0.36765E+02 -0.26431E+01  0.22925E+01  0.18145E+02      982.00
  0.58726E+00  0.63947E+02    0.33750E+00  0.33750E+00 -0.67500E+00  0.00000E+00  0.00000E+00  0.00000E+00    0.19256E+02  0.17616E+02 -0.36872E+02 -0.26329E+01  0.22580E+01  0.18186E+02      982.00
  0.60888E+00  0.64101E+02    0.35000E+00  0.35000E+00 -0.70000E+00  0.00000E+00  0.00000E+00  0.00000E+00    0.19273E+02  0.17699E+02 -0.36973E+02 -0.26196E+01  0.22263E+01  0.18220E+02      982.00
  0.63051E+00  0.64233E+02    0.36250E+00  0.36250E+00 -0.72500E+00  0.00000E+00  0.00000E+00  0.00000E+00    0.19280E+02  0.17779E+02 -0.37059E+02 -0.26027E+01  0.21891E+01  0.18251E+02      982.00
  0.65215E+00  0.64365E+02    0.37500E+00  0.37500E+00 -0.75000E+00  0.00000E+00  0.00000E+00  0.00000E+00    0.19298E+02  0.17851E+02 -0.37150E+02 -0.25853E+01  0.21610E+01  0.18276E+02      982.00
  0.67379E+00  0.64487E+02    0.38750E+00  0.38750E+00 -0.77500E+00  0.00000E+00  0.00000E+00  0.00000E+00    0.19316E+02  0.17918E+02 -0.37234E+02 -0.25662E+01  0.21355E+01  0.18297E+02      982.00
  0.69544E+00  0.64599E+02    0.40000E+00  0.40000E+00 -0.80000E+00  0.00000E+00  0.00000E+00  0.00000E+00    0.19335E+02  0.17979E+02 -0.37314E+02 -0.25462E+01  0.21116E+01  0.18314E+02      982.00
  0.71710E+00  0.64703E+02    0.41250E+00  0.41250E+00 -0.82500E+00  0.00000E+00  0.00000E+00  0.00000E+00    0.19353E+02  0.18035E+02 -0.37388E+02 -0.25257E+01  0.20891E+01  0.18327E+02      982.00
  0.73877E+00  0.64799E+02    0.42500E+00  0.42500E+00 -0.85000E+00  0.00000E+00  0.00000E+00  0.00000E+00    0.19372E+02  0.18087E+02 -0.37459E+02 -0.25051E+01  0.20678E+01  0.18339E+02      982.00
  0.76045E+00  0.64888E+02    0.43750E+00  0.43750E+00 -0.87500E+00  0.00000E+00  0.00000E+00  0.00000E+00    0.19390E+02  0.18134E+02 -0.37525E+02 -0.24844E+01  0.20476E+01  0.18347E+02      982.00
  0.78214E+00  0.64970E+02    0.45000E+00  0.45000E+00 -0.90000E+00  0.00000E+00  0.00000E+00  0.00000E+00    0.19409E+02  0.18177E+02 -0.37587E+02 -0.24641E+01  0.20285E+01  0.18354E+02      982.00
  0.80383E+00  0.65046E+02    0.46250E+00  0.46250E+00 -0.92500E+00  0.00000E+00  0.00000E+00  0.00000E+00    0.19429E+02  0.18217E+02 -0.37645E+02 -0.24442E+01  0.20102E+01  0.18360E+02      982.00
  0.82554E+00  0.65117E+02    0.47500E+00  0.47500E+00 -0.95000E+00  0.00000E+00  0.00000E+00  0.00000E+00    0.19448E+02  0.18252E+02 -0.37700E+02 -0.24248E+01  0.19929E+01  0.18364E+02      982.00
  0.84725E+00  0.65182E+02    0.48750E+00  0.48750E+00 -0.97500E+00  0.00000E+00  0.00000E+00  0.00000E+00    0.19468E+02  0.18284E+02 -0.37752E+02 -0.24060E+01  0.19764E+01  0.18366E+02      982.00
  0.86897E+00  0.65243E+02    0.50000E+00  0.50000E+00 -0.10000E+01  0.00000E+00  0.00000E+00  0.00000E+00    0.19488E+02  0.18312E+02 -0.37800E+02 -0.23880E+01  0.19606E+01  0.18368E+02      982.00
