          Evm          Svm            E11          E22          E33          E23          E13          E12         SDEV11       SDEV22       SDEV33       SDEV23       SDEV13       SDEV12      TEMP
  0.00000E+00  0.54182E+02    0.00000E+00  0.00000E+00  0.00000E+00  0.00000E+00  0.00000E+00  0.00000E+00    0.20151E+02  0.12828E+02 -0.32979E+02  0.56825E+01  0.68553E+01 -0.83760E+01      982.00
  0.22825E-01  0.54625E+02    0.12500E-01  0.12500E-01 -0.25000E-01  0.00000E+00  0.00000E+00  0.00000E+00    0.20146E+02  0.13101E+02 -0.33247E+02  0.57742E+01  0.68847E+01 -0.85119E+01      982.00
  0.45649E-01  0.55039E+02    0.25000E-01  0.25000E-01 -0.50000E-01  0.00000E+00  0.00000E+00  0.00000E+00    0.20195E+02  0.13321E+02 -0.33516E+02  0.58178E+01  0.68870E+01 -0.86143E+01      982.00
  0.68485E-01  0.55437E+02    0.37500E-01  0.37500E-01 -0.75000E-01  0.00000E+00  0.00000E+00  0.00000E+00    0.20268E+02  0.13517E+02 -0.33785E+02  0.58348E+01  0.68717E+01 -0.87014E+01      982.00
  0.91338E-01  0.55829E+02    0.50000E-01  0.50000E-01 -0.10000E+00  0.00000E+00  0.00000E+00  0.00000E+00    0.20363E+02  0.13693E+02 -0.34056E+02  0.58314E+01  0.68438E+01 -0.87818E+01      982.00
  0.11421E+00  0.56249E+02    0.62500E-01  0.62500E-01 -0.12500E+00  0.00000E+00  0.00000E+00  0.00000E+00    0.20482E+02  0.13860E+02 -0.34343E+02  0.58202E+01  0.68105E+01 -0.88819E+01      982.00
  0.13711E+00  0.56686E+02    0.75000E-01  0.75000E-01 -0.15000E+00  0.00000E+00  0.00000E+00  0.00000E+00    0.20630E+02  0.14016E+02 -0.34645E+02  0.57920E+01  0.67673E+01 -0.89764E+01      982.00
  0.16003E+00  0.57108E+02    0.87500E-01  0.87500E-01 -0.17500E+00  0.00000E+00  0.00000E+00  0.00000E+00    0.20790E+02  0.14154E+02 -0.34944E+02  0.57491E+01  0.67158E+01 -0.90611E+01      982.00
  0.18297E+00  0.57544E+02    0.10000E+00  0.10000E+00 -0.20000E+00  0.00000E+00  0.00000E+00  0.00000E+00    0.20960E+02  0.14292E+02 -0.35252E+02  0.57031E+01  0.66618E+01 -0.91503E+01      982.00
  0.20595E+00  0.57943E+02    0.11250E+00  0.11250E+00 -0.22500E+00  0.00000E+00  0.00000E+00  0.00000E+00    0.21106E+02  0.14437E+02 -0.35544E+02  0.56584E+01  0.66015E+01 -0.92147E+01      982.00
  0.22895E+00  0.58424E+02    0.12500E+00  0.12500E+00 -0.25000E+00  0.00000E+00  0.00000E+00  0.00000E+00    0.21290E+02  0.14584E+02 -0.35874E+02  0.56129E+01  0.65474E+01 -0.93264E+01      982.00
  0.25198E+00  0.58892E+02    0.13750E+00  0.13750E+00 -0.27500E+00  0.00000E+00  0.00000E+00  0.00000E+00    0.21457E+02  0.14745E+02 -0.36202E+02  0.55686E+01  0.64895E+01 -0.94211E+01      982.00
  0.27503E+00  0.59407E+02    0.15000E+00  0.15000E+00 -0.30000E+00  0.00000E+00  0.00000E+00  0.00000E+00    0.21627E+02  0.14929E+02 -0.36557E+02  0.55321E+01  0.64376E+01 -0.95300E+01      982.00
  0.29810E+00  0.59885E+02    0.16250E+00  0.16250E+00 -0.32500E+00  0.00000E+00  0.00000E+00  0.00000E+00    0.21775E+02  0.15118E+02 -0.36893E+02  0.54936E+01  0.63842E+01 -0.96217E+01      982.00
  0.32121E+00  0.60363E+02    0.17500E+00  0.17500E+00 -0.35000E+00  0.00000E+00  0.00000E+00  0.00000E+00    0.21909E+02  0.15320E+02 -0.37229E+02  0.54582E+01  0.63347E+01 -0.97096E+01      982.00
  0.34434E+00  0.60801E+02    0.18750E+00  0.18750E+00 -0.37500E+00  0.00000E+00  0.00000E+00  0.00000E+00    0.22024E+02  0.15518E+02 -0.37542E+02  0.54198E+01  0.62893E+01 -0.97835E+01      982.00
  0.36749E+00  0.61269E+02    0.20000E+00  0.20000E+00 -0.40000E+00  0.00000E+00  0.00000E+00  0.00000E+00    0.22132E+02  0.15741E+02 -0.37873E+02  0.53864E+01  0.62492E+01 -0.98618E+01      982.00
  0.39067E+00  0.61706E+02    0.21250E+00  0.21250E+00 -0.42500E+00  0.00000E+00  0.00000E+00  0.00000E+00    0.22229E+02  0.15955E+02 -0.38184E+02  0.53511E+01  0.62165E+01 -0.99291E+01      982.00
  0.41388E+00  0.62145E+02    0.22500E+00  0.22500E+00 -0.45000E+00  0.00000E+00  0.00000E+00  0.00000E+00    0.22316E+02  0.16182E+02 -0.38498E+02  0.53145E+01  0.61856E+01 -0.99930E+01      982.00
  0.43711E+00  0.62575E+02    0.23750E+00  0.23750E+00 -0.47500E+00  0.00000E+00  0.00000E+00  0.00000E+00    0.22383E+02  0.16425E+02 -0.38808E+02  0.52794E+01  0.61573E+01 -0.10050E+02      982.00
  0.46036E+00  0.62988E+02    0.25000E+00  0.25000E+00 -0.50000E+00  0.00000E+00  0.00000E+00  0.00000E+00    0.22434E+02  0.16675E+02 -0.39109E+02  0.52436E+01  0.61322E+01 -0.10097E+02      982.00
  0.48365E+00  0.63384E+02    0.26250E+00  0.26250E+00 -0.52500E+00  0.00000E+00  0.00000E+00  0.00000E+00    0.22471E+02  0.16930E+02 -0.39401E+02  0.52057E+01  0.61089E+01 -0.10136E+02      982.00
  0.50696E+00  0.63760E+02    0.27500E+00  0.27500E+00 -0.55000E+00  0.00000E+00  0.00000E+00  0.00000E+00    0.22494E+02  0.17187E+02 -0.39681E+02  0.51672E+01  0.60897E+01 -0.10166E+02      982.00
  0.53030E+00  0.64116E+02    0.28750E+00  0.28750E+00 -0.57500E+00  0.00000E+00  0.00000E+00  0.00000E+00    0.22503E+02  0.17446E+02 -0.39949E+02  0.51269E+01  0.60729E+01 -0.10188E+02      982.00
  0.55366E+00  0.64453E+02    0.30000E+00  0.30000E+00 -0.60000E+00  0.00000E+00  0.00000E+00  0.00000E+00    0.22501E+02  0.17705E+02 -0.40205E+02  0.50848E+01  0.60583E+01 -0.10202E+02      982.00
  0.57705E+00  0.64768E+02    0.31250E+00  0.31250E+00 -0.62500E+00  0.00000E+00  0.00000E+00  0.00000E+00    0.22472E+02  0.17979E+02 -0.40451E+02  0.50412E+01  0.60433E+01 -0.10202E+02      982.00
  0.60047E+00  0.65066E+02    0.32500E+00  0.32500E+00 -0.65000E+00  0.00000E+00  0.00000E+00  0.00000E+00    0.22448E+02  0.18236E+02 -0.40684E+02  0.49956E+01  0.60319E+01 -0.10200E+02      982.00
  0.62392E+00  0.65331E+02    0.33750E+00  0.33750E+00 -0.67500E+00  0.00000E+00  0.00000E+00  0.00000E+00    0.22419E+02  0.18472E+02 -0.40892E+02  0.49510E+01  0.60241E+01 -0.10195E+02      982.00
  0.64739E+00  0.65595E+02    0.35000E+00  0.35000E+00 -0.70000E+00  0.00000E+00  0.00000E+00  0.00000E+00    0.22379E+02  0.18722E+02 -0.41102E+02  0.49017E+01  0.60157E+01 -0.10181E+02      982.00
  0.67089E+00  0.65840E+02    0.36250E+00  0.36250E+00 -0.72500E+00  0.00000E+00  0.00000E+00  0.00000E+00    0.22332E+02  0.18969E+02 -0.41300E+02  0.48512E+01  0.60086E+01 -0.10161E+02      982.00
  0.69441E+00  0.66067E+02    0.37500E+00  0.37500E+00 -0.75000E+00  0.00000E+00  0.00000E+00  0.00000E+00    0.22255E+02  0.19237E+02 -0.41492E+02  0.47959E+01  0.60026E+01 -0.10123E+02      982.00
  0.71796E+00  0.66279E+02    0.38750E+00  0.38750E+00 -0.77500E+00  0.00000E+00  0.00000E+00  0.00000E+00    0.22194E+02  0.19474E+02 -0.41668E+02  0.47422E+01  0.59974E+01 -0.10092E+02      982.00
  0.74154E+00  0.66476E+02    0.40000E+00  0.40000E+00 -0.80000E+00  0.00000E+00  0.00000E+00  0.00000E+00    0.22128E+02  0.19706E+02 -0.41834E+02  0.46874E+01  0.59935E+01 -0.10056E+02      982.00
  0.76514E+00  0.66659E+02    0.41250E+00  0.41250E+00 -0.82500E+00  0.00000E+00  0.00000E+00  0.00000E+00    0.22057E+02  0.19933E+02 -0.41989E+02  0.46317E+01  0.59906E+01 -0.10017E+02      982.00
  0.78876E+00  0.66829E+02    0.42500E+00  0.42500E+00 -0.85000E+00  0.00000E+00  0.00000E+00  0.00000E+00    0.21981E+02  0.20155E+02 -0.42136E+02  0.45753E+01  0.59887E+01 -0.99737E+01      982.00
  0.81240E+00  0.66985E+02    0.43750E+00  0.43750E+00 -0.87500E+00  0.00000E+00  0.00000E+00  0.00000E+00    0.21901E+02  0.20373E+02 -0.42273E+02  0.45184E+01  0.59877E+01 -0.99269E+01      982.00
  0.83607E+00  0.67130E+02    0.45000E+00  0.45000E+00 -0.90000E+00  0.00000E+00  0.00000E+00  0.00000E+00    0.21817E+02  0.20585E+02 -0.42402E+02  0.44611E+01  0.59876E+01 -0.98771E+01      982.00
  0.85976E+00  0.67264E+02    0.46250E+00  0.46250E+00 -0.92500E+00  0.00000E+00  0.00000E+00  0.00000E+00    0.21730E+02  0.20794E+02 -0.42523E+02  0.44036E+01  0.59885E+01 -0.98242E+01      982.00
  0.88346E+00  0.67329E+02    0.47500E+00  0.47500E+00 -0.95000E+00  0.00000E+00  0.00000E+00  0.00000E+00    0.21656E+02  0.20946E+02 -0.42602E+02  0.43360E+01  0.59542E+01 -0.97719E+01      982.00
  0.90719E+00  0.67378E+02    0.48750E+00  0.48750E+00 -0.97500E+00  0.00000E+00  0.00000E+00  0.00000E+00    0.21559E+02  0.21115E+02 -0.42674E+02  0.42626E+01  0.59281E+01 -0.97022E+01      982.00
  0.93094E+00  0.67423E+02    0.50000E+00  0.50000E+00 -0.10000E+01  0.00000E+00  0.00000E+00  0.00000E+00    0.21461E+02  0.21280E+02 -0.42741E+02  0.41900E+01  0.59041E+01 -0.96329E+01      982.00
