          Evm          Svm            E11          E22          E33          E23          E13          E12         SDEV11       SDEV22       SDEV33       SDEV23       SDEV13       SDEV12      TEMP
  0.00000E+00  0.57348E+02    0.00000E+00  0.00000E+00  0.00000E+00  0.00000E+00  0.00000E+00  0.00000E+00    0.15345E+02  0.20597E+02 -0.35942E+02 -0.38408E+01  0.20954E+00  0.10282E+02      982.00
  0.23502E-01  0.57459E+02    0.12500E-01  0.12500E-01 -0.25000E-01  0.00000E+00  0.00000E+00  0.00000E+00    0.15880E+02  0.20082E+02 -0.35961E+02 -0.36133E+01  0.41812E+00  0.10629E+02      982.00
  0.46972E-01  0.57644E+02    0.25000E-01  0.25000E-01 -0.50000E-01  0.00000E+00  0.00000E+00  0.00000E+00    0.16424E+02  0.19583E+02 -0.36007E+02 -0.34212E+01  0.64569E+00  0.10983E+02      982.00
  0.70396E-01  0.57874E+02    0.37500E-01  0.37500E-01 -0.75000E-01  0.00000E+00  0.00000E+00  0.00000E+00    0.16933E+02  0.19130E+02 -0.36063E+02 -0.32634E+01  0.87445E+00  0.11333E+02      982.00
  0.93763E-01  0.58154E+02    0.50000E-01  0.50000E-01 -0.10000E+00  0.00000E+00  0.00000E+00  0.00000E+00    0.17386E+02  0.18747E+02 -0.36134E+02 -0.31345E+01  0.10929E+01  0.11687E+02      982.00
  0.11706E+00  0.58487E+02    0.62500E-01  0.62500E-01 -0.12500E+00  0.00000E+00  0.00000E+00  0.00000E+00    0.17770E+02  0.18454E+02 -0.36225E+02 -0.30341E+01  0.12884E+01  0.12045E+02      982.00
  0.14029E+00  0.58866E+02    0.75000E-01  0.75000E-01 -0.15000E+00  0.00000E+00  0.00000E+00  0.00000E+00    0.18100E+02  0.18235E+02 -0.36335E+02 -0.29495E+01  0.14646E+01  0.12411E+02      982.00
  0.16344E+00  0.59278E+02    0.87500E-01  0.87500E-01 -0.17500E+00  0.00000E+00  0.00000E+00  0.00000E+00    0.18378E+02  0.18082E+02 -0.36461E+02 -0.28792E+01  0.16187E+01  0.12780E+02      982.00
  0.18650E+00  0.59705E+02    0.10000E+00  0.10000E+00 -0.20000E+00  0.00000E+00  0.00000E+00  0.00000E+00    0.18612E+02  0.17983E+02 -0.36594E+02 -0.28201E+01  0.17514E+01  0.13144E+02      982.00
  0.20949E+00  0.60136E+02    0.11250E+00  0.11250E+00 -0.22500E+00  0.00000E+00  0.00000E+00  0.00000E+00    0.18802E+02  0.17929E+02 -0.36731E+02 -0.27736E+01  0.18601E+01  0.13498E+02      982.00
  0.23239E+00  0.60558E+02    0.12500E+00  0.12500E+00 -0.25000E+00  0.00000E+00  0.00000E+00  0.00000E+00    0.18967E+02  0.17900E+02 -0.36867E+02 -0.27315E+01  0.19550E+01  0.13838E+02      982.00
  0.25522E+00  0.60970E+02    0.13750E+00  0.13750E+00 -0.27500E+00  0.00000E+00  0.00000E+00  0.00000E+00    0.19106E+02  0.17894E+02 -0.37000E+02 -0.26991E+01  0.20334E+01  0.14162E+02      982.00
  0.27798E+00  0.61350E+02    0.15000E+00  0.15000E+00 -0.30000E+00  0.00000E+00  0.00000E+00  0.00000E+00    0.19224E+02  0.17897E+02 -0.37121E+02 -0.26674E+01  0.20998E+01  0.14462E+02      982.00
  0.30067E+00  0.61718E+02    0.16250E+00  0.16250E+00 -0.32500E+00  0.00000E+00  0.00000E+00  0.00000E+00    0.19323E+02  0.17915E+02 -0.37238E+02 -0.26452E+01  0.21492E+01  0.14751E+02      982.00
  0.32329E+00  0.62050E+02    0.17500E+00  0.17500E+00 -0.35000E+00  0.00000E+00  0.00000E+00  0.00000E+00    0.19412E+02  0.17930E+02 -0.37342E+02 -0.26202E+01  0.21931E+01  0.15012E+02      982.00
  0.34586E+00  0.62370E+02    0.18750E+00  0.18750E+00 -0.37500E+00  0.00000E+00  0.00000E+00  0.00000E+00    0.19490E+02  0.17951E+02 -0.37441E+02 -0.26051E+01  0.22234E+01  0.15264E+02      982.00
  0.36837E+00  0.62656E+02    0.20000E+00  0.20000E+00 -0.40000E+00  0.00000E+00  0.00000E+00  0.00000E+00    0.19562E+02  0.17966E+02 -0.37528E+02 -0.25846E+01  0.22495E+01  0.15490E+02      982.00
  0.39083E+00  0.62928E+02    0.21250E+00  0.21250E+00 -0.42500E+00  0.00000E+00  0.00000E+00  0.00000E+00    0.19626E+02  0.17983E+02 -0.37609E+02 -0.25745E+01  0.22648E+01  0.15707E+02      982.00
  0.41325E+00  0.63166E+02    0.22500E+00  0.22500E+00 -0.45000E+00  0.00000E+00  0.00000E+00  0.00000E+00    0.19680E+02  0.17997E+02 -0.37677E+02 -0.25706E+01  0.22737E+01  0.15900E+02      982.00
  0.43561E+00  0.63395E+02    0.23750E+00  0.23750E+00 -0.47500E+00  0.00000E+00  0.00000E+00  0.00000E+00    0.19735E+02  0.18008E+02 -0.37743E+02 -0.25626E+01  0.22770E+01  0.16085E+02      982.00
  0.45794E+00  0.63587E+02    0.25000E+00  0.25000E+00 -0.50000E+00  0.00000E+00  0.00000E+00  0.00000E+00    0.19786E+02  0.18011E+02 -0.37798E+02 -0.25476E+01  0.22750E+01  0.16243E+02      982.00
  0.48023E+00  0.63780E+02    0.26250E+00  0.26250E+00 -0.52500E+00  0.00000E+00  0.00000E+00  0.00000E+00    0.19836E+02  0.18015E+02 -0.37851E+02 -0.25413E+01  0.22687E+01  0.16401E+02      982.00
  0.50249E+00  0.63970E+02    0.27500E+00  0.27500E+00 -0.55000E+00  0.00000E+00  0.00000E+00  0.00000E+00    0.19892E+02  0.18009E+02 -0.37901E+02 -0.25129E+01  0.22452E+01  0.16567E+02      982.00
  0.52470E+00  0.64114E+02    0.28750E+00  0.28750E+00 -0.57500E+00  0.00000E+00  0.00000E+00  0.00000E+00    0.19933E+02  0.18002E+02 -0.37936E+02 -0.25077E+01  0.22278E+01  0.16693E+02      982.00
  0.54689E+00  0.64270E+02    0.30000E+00  0.30000E+00 -0.60000E+00  0.00000E+00  0.00000E+00  0.00000E+00    0.19975E+02  0.18004E+02 -0.37979E+02 -0.25148E+01  0.22188E+01  0.16818E+02      982.00
  0.56905E+00  0.64381E+02    0.31250E+00  0.31250E+00 -0.62500E+00  0.00000E+00  0.00000E+00  0.00000E+00    0.20007E+02  0.18000E+02 -0.38007E+02 -0.25193E+01  0.22093E+01  0.16912E+02      982.00
  0.59119E+00  0.64503E+02    0.32500E+00  0.32500E+00 -0.65000E+00  0.00000E+00  0.00000E+00  0.00000E+00    0.20047E+02  0.17991E+02 -0.38038E+02 -0.25116E+01  0.21870E+01  0.17017E+02      982.00
  0.61330E+00  0.64615E+02    0.33750E+00  0.33750E+00 -0.67500E+00  0.00000E+00  0.00000E+00  0.00000E+00    0.20086E+02  0.17980E+02 -0.38066E+02 -0.25034E+01  0.21631E+01  0.17114E+02      982.00
  0.63540E+00  0.64717E+02    0.35000E+00  0.35000E+00 -0.70000E+00  0.00000E+00  0.00000E+00  0.00000E+00    0.20124E+02  0.17967E+02 -0.38091E+02 -0.24948E+01  0.21379E+01  0.17203E+02      982.00
  0.65747E+00  0.64811E+02    0.36250E+00  0.36250E+00 -0.72500E+00  0.00000E+00  0.00000E+00  0.00000E+00    0.20161E+02  0.17953E+02 -0.38114E+02 -0.24858E+01  0.21117E+01  0.17285E+02      982.00
  0.67952E+00  0.64871E+02    0.37500E+00  0.37500E+00 -0.75000E+00  0.00000E+00  0.00000E+00  0.00000E+00    0.20192E+02  0.17936E+02 -0.38128E+02 -0.24708E+01  0.20758E+01  0.17342E+02      982.00
  0.70156E+00  0.64953E+02    0.38750E+00  0.38750E+00 -0.77500E+00  0.00000E+00  0.00000E+00  0.00000E+00    0.20228E+02  0.17920E+02 -0.38149E+02 -0.24617E+01  0.20481E+01  0.17413E+02      982.00
  0.72359E+00  0.65027E+02    0.40000E+00  0.40000E+00 -0.80000E+00  0.00000E+00  0.00000E+00  0.00000E+00    0.20264E+02  0.17903E+02 -0.38167E+02 -0.24523E+01  0.20210E+01  0.17478E+02      982.00
  0.74560E+00  0.65096E+02    0.41250E+00  0.41250E+00 -0.82500E+00  0.00000E+00  0.00000E+00  0.00000E+00    0.20299E+02  0.17885E+02 -0.38185E+02 -0.24427E+01  0.19943E+01  0.17537E+02      982.00
  0.76759E+00  0.65159E+02    0.42500E+00  0.42500E+00 -0.85000E+00  0.00000E+00  0.00000E+00  0.00000E+00    0.20334E+02  0.17866E+02 -0.38201E+02 -0.24331E+01  0.19682E+01  0.17591E+02      982.00
  0.78958E+00  0.65217E+02    0.43750E+00  0.43750E+00 -0.87500E+00  0.00000E+00  0.00000E+00  0.00000E+00    0.20369E+02  0.17847E+02 -0.38216E+02 -0.24235E+01  0.19430E+01  0.17640E+02      982.00
  0.81155E+00  0.65271E+02    0.45000E+00  0.45000E+00 -0.90000E+00  0.00000E+00  0.00000E+00  0.00000E+00    0.20403E+02  0.17827E+02 -0.38230E+02 -0.24140E+01  0.19186E+01  0.17686E+02      982.00
  0.83352E+00  0.65322E+02    0.46250E+00  0.46250E+00 -0.92500E+00  0.00000E+00  0.00000E+00  0.00000E+00    0.20438E+02  0.17806E+02 -0.38244E+02 -0.24047E+01  0.18954E+01  0.17728E+02      982.00
  0.85547E+00  0.65384E+02    0.47500E+00  0.47500E+00 -0.95000E+00  0.00000E+00  0.00000E+00  0.00000E+00    0.20477E+02  0.17784E+02 -0.38261E+02 -0.23999E+01  0.18819E+01  0.17776E+02      982.00
  0.87742E+00  0.65413E+02    0.48750E+00  0.48750E+00 -0.97500E+00  0.00000E+00  0.00000E+00  0.00000E+00    0.20505E+02  0.17764E+02 -0.38269E+02 -0.23868E+01  0.18534E+01  0.17800E+02      982.00
  0.89936E+00  0.65467E+02    0.50000E+00  0.50000E+00 -0.10000E+01  0.00000E+00  0.00000E+00  0.00000E+00    0.20544E+02  0.17741E+02 -0.38285E+02 -0.23823E+01  0.18406E+01  0.17842E+02      982.00
