          Evm          Svm            E11          E22          E33          E23          E13          E12         SDEV11       SDEV22       SDEV33       SDEV23       SDEV13       SDEV12      TEMP
  0.00000E+00  0.59154E+02    0.00000E+00  0.00000E+00  0.00000E+00  0.00000E+00  0.00000E+00  0.00000E+00    0.21273E+02  0.15331E+02 -0.36604E+02 -0.65316E+00  0.38066E+01  0.11736E+02      982.00
  0.23205E-01  0.59137E+02    0.12500E-01  0.12500E-01 -0.25000E-01  0.00000E+00  0.00000E+00  0.00000E+00    0.20725E+02  0.15850E+02 -0.36575E+02 -0.89363E+00  0.35272E+01  0.11969E+02      982.00
  0.46398E-01  0.59171E+02    0.25000E-01  0.25000E-01 -0.50000E-01  0.00000E+00  0.00000E+00  0.00000E+00    0.20274E+02  0.16283E+02 -0.36557E+02 -0.11214E+01  0.33346E+01  0.12181E+02      982.00
  0.69566E-01  0.59271E+02    0.37500E-01  0.37500E-01 -0.75000E-01  0.00000E+00  0.00000E+00  0.00000E+00    0.19906E+02  0.16657E+02 -0.36563E+02 -0.13407E+01  0.31914E+01  0.12399E+02      982.00
  0.92700E-01  0.59442E+02    0.50000E-01  0.50000E-01 -0.10000E+00  0.00000E+00  0.00000E+00  0.00000E+00    0.19617E+02  0.16982E+02 -0.36599E+02 -0.15480E+01  0.30821E+01  0.12631E+02      982.00
  0.11579E+00  0.59677E+02    0.62500E-01  0.62500E-01 -0.12500E+00  0.00000E+00  0.00000E+00  0.00000E+00    0.19400E+02  0.17264E+02 -0.36663E+02 -0.17377E+01  0.30005E+01  0.12877E+02      982.00
  0.13883E+00  0.59962E+02    0.75000E-01  0.75000E-01 -0.15000E+00  0.00000E+00  0.00000E+00  0.00000E+00    0.19243E+02  0.17508E+02 -0.36751E+02 -0.19088E+01  0.29400E+01  0.13132E+02      982.00
  0.16181E+00  0.60283E+02    0.87500E-01  0.87500E-01 -0.17500E+00  0.00000E+00  0.00000E+00  0.00000E+00    0.19138E+02  0.17719E+02 -0.36857E+02 -0.20579E+01  0.28982E+01  0.13393E+02      982.00
  0.18474E+00  0.60627E+02    0.10000E+00  0.10000E+00 -0.20000E+00  0.00000E+00  0.00000E+00  0.00000E+00    0.19066E+02  0.17911E+02 -0.36977E+02 -0.21922E+01  0.28654E+01  0.13653E+02      982.00
  0.20761E+00  0.60983E+02    0.11250E+00  0.11250E+00 -0.22500E+00  0.00000E+00  0.00000E+00  0.00000E+00    0.19020E+02  0.18084E+02 -0.37105E+02 -0.23099E+01  0.28410E+01  0.13908E+02      982.00
  0.23043E+00  0.61342E+02    0.12500E+00  0.12500E+00 -0.25000E+00  0.00000E+00  0.00000E+00  0.00000E+00    0.18999E+02  0.18239E+02 -0.37238E+02 -0.24093E+01  0.28257E+01  0.14154E+02      982.00
  0.25319E+00  0.61697E+02    0.13750E+00  0.13750E+00 -0.27500E+00  0.00000E+00  0.00000E+00  0.00000E+00    0.18986E+02  0.18387E+02 -0.37373E+02 -0.24979E+01  0.28113E+01  0.14390E+02      982.00
  0.27591E+00  0.62046E+02    0.15000E+00  0.15000E+00 -0.30000E+00  0.00000E+00  0.00000E+00  0.00000E+00    0.18983E+02  0.18526E+02 -0.37508E+02 -0.25737E+01  0.28004E+01  0.14613E+02      982.00
  0.29858E+00  0.62380E+02    0.16250E+00  0.16250E+00 -0.32500E+00  0.00000E+00  0.00000E+00  0.00000E+00    0.18988E+02  0.18653E+02 -0.37642E+02 -0.26359E+01  0.27923E+01  0.14820E+02      982.00
  0.32121E+00  0.62700E+02    0.17500E+00  0.17500E+00 -0.35000E+00  0.00000E+00  0.00000E+00  0.00000E+00    0.18993E+02  0.18779E+02 -0.37772E+02 -0.26907E+01  0.27813E+01  0.15014E+02      982.00
  0.34380E+00  0.63018E+02    0.18750E+00  0.18750E+00 -0.37500E+00  0.00000E+00  0.00000E+00  0.00000E+00    0.19008E+02  0.18896E+02 -0.37904E+02 -0.27330E+01  0.27743E+01  0.15200E+02      982.00
  0.36635E+00  0.63313E+02    0.20000E+00  0.20000E+00 -0.40000E+00  0.00000E+00  0.00000E+00  0.00000E+00    0.19018E+02  0.19012E+02 -0.38030E+02 -0.27716E+01  0.27634E+01  0.15368E+02      982.00
  0.38888E+00  0.63598E+02    0.21250E+00  0.21250E+00 -0.42500E+00  0.00000E+00  0.00000E+00  0.00000E+00    0.19033E+02  0.19118E+02 -0.38151E+02 -0.28012E+01  0.27554E+01  0.15529E+02      982.00
  0.41137E+00  0.63868E+02    0.22500E+00  0.22500E+00 -0.45000E+00  0.00000E+00  0.00000E+00  0.00000E+00    0.19045E+02  0.19222E+02 -0.38267E+02 -0.28320E+01  0.27482E+01  0.15679E+02      982.00
  0.43384E+00  0.64141E+02    0.23750E+00  0.23750E+00 -0.47500E+00  0.00000E+00  0.00000E+00  0.00000E+00    0.19067E+02  0.19314E+02 -0.38382E+02 -0.28608E+01  0.27519E+01  0.15834E+02      982.00
  0.45628E+00  0.64394E+02    0.25000E+00  0.25000E+00 -0.50000E+00  0.00000E+00  0.00000E+00  0.00000E+00    0.19087E+02  0.19397E+02 -0.38485E+02 -0.28980E+01  0.27651E+01  0.15978E+02      982.00
  0.47869E+00  0.64631E+02    0.26250E+00  0.26250E+00 -0.52500E+00  0.00000E+00  0.00000E+00  0.00000E+00    0.19109E+02  0.19468E+02 -0.38577E+02 -0.29387E+01  0.27899E+01  0.16117E+02      982.00
  0.50108E+00  0.64865E+02    0.27500E+00  0.27500E+00 -0.55000E+00  0.00000E+00  0.00000E+00  0.00000E+00    0.19134E+02  0.19533E+02 -0.38667E+02 -0.29694E+01  0.28139E+01  0.16259E+02      982.00
  0.52343E+00  0.65075E+02    0.28750E+00  0.28750E+00 -0.57500E+00  0.00000E+00  0.00000E+00  0.00000E+00    0.19148E+02  0.19596E+02 -0.38744E+02 -0.29686E+01  0.28104E+01  0.16401E+02      982.00
  0.54576E+00  0.65259E+02    0.30000E+00  0.30000E+00 -0.60000E+00  0.00000E+00  0.00000E+00  0.00000E+00    0.19167E+02  0.19650E+02 -0.38817E+02 -0.29381E+01  0.27817E+01  0.16526E+02      982.00
  0.56806E+00  0.65429E+02    0.31250E+00  0.31250E+00 -0.62500E+00  0.00000E+00  0.00000E+00  0.00000E+00    0.19177E+02  0.19702E+02 -0.38879E+02 -0.28871E+01  0.27309E+01  0.16656E+02      982.00
  0.59034E+00  0.65576E+02    0.32500E+00  0.32500E+00 -0.65000E+00  0.00000E+00  0.00000E+00  0.00000E+00    0.19176E+02  0.19756E+02 -0.38932E+02 -0.28121E+01  0.26526E+01  0.16780E+02      982.00
  0.61261E+00  0.65726E+02    0.33750E+00  0.33750E+00 -0.67500E+00  0.00000E+00  0.00000E+00  0.00000E+00    0.19183E+02  0.19804E+02 -0.38987E+02 -0.27455E+01  0.25843E+01  0.16902E+02      982.00
  0.63485E+00  0.65858E+02    0.35000E+00  0.35000E+00 -0.70000E+00  0.00000E+00  0.00000E+00  0.00000E+00    0.19181E+02  0.19852E+02 -0.39033E+02 -0.26578E+01  0.24930E+01  0.17021E+02      982.00
  0.65708E+00  0.65987E+02    0.36250E+00  0.36250E+00 -0.72500E+00  0.00000E+00  0.00000E+00  0.00000E+00    0.19180E+02  0.19896E+02 -0.39077E+02 -0.25769E+01  0.24075E+01  0.17136E+02      982.00
  0.67928E+00  0.66110E+02    0.37500E+00  0.37500E+00 -0.75000E+00  0.00000E+00  0.00000E+00  0.00000E+00    0.19180E+02  0.19937E+02 -0.39117E+02 -0.24990E+01  0.23249E+01  0.17247E+02      982.00
  0.70147E+00  0.66226E+02    0.38750E+00  0.38750E+00 -0.77500E+00  0.00000E+00  0.00000E+00  0.00000E+00    0.19180E+02  0.19974E+02 -0.39154E+02 -0.24261E+01  0.22471E+01  0.17352E+02      982.00
  0.72364E+00  0.66333E+02    0.40000E+00  0.40000E+00 -0.80000E+00  0.00000E+00  0.00000E+00  0.00000E+00    0.19177E+02  0.20011E+02 -0.39188E+02 -0.23550E+01  0.21685E+01  0.17450E+02      982.00
  0.74580E+00  0.66435E+02    0.41250E+00  0.41250E+00 -0.82500E+00  0.00000E+00  0.00000E+00  0.00000E+00    0.19179E+02  0.20040E+02 -0.39220E+02 -0.22951E+01  0.21031E+01  0.17541E+02      982.00
  0.76794E+00  0.66532E+02    0.42500E+00  0.42500E+00 -0.85000E+00  0.00000E+00  0.00000E+00  0.00000E+00    0.19183E+02  0.20066E+02 -0.39250E+02 -0.22418E+01  0.20446E+01  0.17626E+02      982.00
  0.79006E+00  0.66622E+02    0.43750E+00  0.43750E+00 -0.87500E+00  0.00000E+00  0.00000E+00  0.00000E+00    0.19189E+02  0.20089E+02 -0.39278E+02 -0.21949E+01  0.19926E+01  0.17705E+02      982.00
  0.81217E+00  0.66711E+02    0.45000E+00  0.45000E+00 -0.90000E+00  0.00000E+00  0.00000E+00  0.00000E+00    0.19198E+02  0.20108E+02 -0.39306E+02 -0.21593E+01  0.19521E+01  0.17778E+02      982.00
  0.83426E+00  0.66790E+02    0.46250E+00  0.46250E+00 -0.92500E+00  0.00000E+00  0.00000E+00  0.00000E+00    0.19206E+02  0.20125E+02 -0.39331E+02 -0.21229E+01  0.19107E+01  0.17843E+02      982.00
  0.85635E+00  0.66857E+02    0.47500E+00  0.47500E+00 -0.95000E+00  0.00000E+00  0.00000E+00  0.00000E+00    0.19212E+02  0.20142E+02 -0.39354E+02 -0.20827E+01  0.18629E+01  0.17899E+02      982.00
  0.87842E+00  0.66925E+02    0.48750E+00  0.48750E+00 -0.97500E+00  0.00000E+00  0.00000E+00  0.00000E+00    0.19222E+02  0.20155E+02 -0.39377E+02 -0.20613E+01  0.18360E+01  0.17951E+02      982.00
  0.90048E+00  0.66991E+02    0.50000E+00  0.50000E+00 -0.10000E+01  0.00000E+00  0.00000E+00  0.00000E+00    0.19234E+02  0.20165E+02 -0.39399E+02 -0.20385E+01  0.18083E+01  0.18001E+02      982.00
