          Evm          Svm            E11          E22          E33          E23          E13          E12         SDEV11       SDEV22       SDEV33       SDEV23       SDEV13       SDEV12      TEMP
  0.00000E+00  0.52329E+02    0.00000E+00  0.00000E+00  0.00000E+00  0.00000E+00  0.00000E+00  0.00000E+00    0.21153E+02  0.12603E+02 -0.33756E+02 -0.55731E+01  0.27471E+01 -0.11334E+01      982.00
  0.24190E-01  0.51986E+02    0.12500E-01  0.12500E-01 -0.25000E-01  0.00000E+00  0.00000E+00  0.00000E+00    0.21018E+02  0.12522E+02 -0.33541E+02 -0.52434E+01  0.29649E+01 -0.16709E+01      982.00
  0.48385E-01  0.51710E+02    0.25000E-01  0.25000E-01 -0.50000E-01  0.00000E+00  0.00000E+00  0.00000E+00    0.20877E+02  0.12484E+02 -0.33362E+02 -0.48718E+01  0.31963E+01 -0.22361E+01      982.00
  0.72578E-01  0.51508E+02    0.37500E-01  0.37500E-01 -0.75000E-01  0.00000E+00  0.00000E+00  0.00000E+00    0.20724E+02  0.12499E+02 -0.33223E+02 -0.44490E+01  0.34372E+01 -0.28326E+01      982.00
  0.96766E-01  0.51391E+02    0.50000E-01  0.50000E-01 -0.10000E+00  0.00000E+00  0.00000E+00  0.00000E+00    0.20548E+02  0.12582E+02 -0.33130E+02 -0.39619E+01  0.36827E+01 -0.34666E+01      982.00
  0.12094E+00  0.51367E+02    0.62500E-01  0.62500E-01 -0.12500E+00  0.00000E+00  0.00000E+00  0.00000E+00    0.20337E+02  0.12749E+02 -0.33086E+02 -0.33899E+01  0.39266E+01 -0.41481E+01      982.00
  0.14510E+00  0.51450E+02    0.75000E-01  0.75000E-01 -0.15000E+00  0.00000E+00  0.00000E+00  0.00000E+00    0.20073E+02  0.13020E+02 -0.33094E+02 -0.27032E+01  0.41622E+01 -0.48907E+01      982.00
  0.16922E+00  0.51651E+02    0.87500E-01  0.87500E-01 -0.17500E+00  0.00000E+00  0.00000E+00  0.00000E+00    0.19741E+02  0.13405E+02 -0.33146E+02 -0.18645E+01  0.43828E+01 -0.57060E+01      982.00
  0.19328E+00  0.51964E+02    0.10000E+00  0.10000E+00 -0.20000E+00  0.00000E+00  0.00000E+00  0.00000E+00    0.19353E+02  0.13870E+02 -0.33222E+02 -0.88976E+00  0.45749E+01 -0.65601E+01      982.00
  0.21726E+00  0.52349E+02    0.11250E+00  0.11250E+00 -0.22500E+00  0.00000E+00  0.00000E+00  0.00000E+00    0.18970E+02  0.14332E+02 -0.33301E+02  0.76267E-01  0.47252E+01 -0.73495E+01      982.00
  0.24111E+00  0.52767E+02    0.12500E+00  0.12500E+00 -0.25000E+00  0.00000E+00  0.00000E+00  0.00000E+00    0.18665E+02  0.14727E+02 -0.33392E+02  0.85014E+00  0.48374E+01 -0.79892E+01      982.00
  0.26484E+00  0.53197E+02    0.13750E+00  0.13750E+00 -0.27500E+00  0.00000E+00  0.00000E+00  0.00000E+00    0.18468E+02  0.15044E+02 -0.33512E+02  0.13813E+01  0.49234E+01 -0.84831E+01      982.00
  0.28847E+00  0.53631E+02    0.15000E+00  0.15000E+00 -0.30000E+00  0.00000E+00  0.00000E+00  0.00000E+00    0.18372E+02  0.15291E+02 -0.33662E+02  0.17180E+01  0.49902E+01 -0.88707E+01      982.00
  0.31200E+00  0.54067E+02    0.16250E+00  0.16250E+00 -0.32500E+00  0.00000E+00  0.00000E+00  0.00000E+00    0.18356E+02  0.15481E+02 -0.33838E+02  0.19309E+01  0.50428E+01 -0.91907E+01      982.00
  0.33547E+00  0.54508E+02    0.17500E+00  0.17500E+00 -0.35000E+00  0.00000E+00  0.00000E+00  0.00000E+00    0.18407E+02  0.15626E+02 -0.34033E+02  0.20674E+01  0.50850E+01 -0.94674E+01      982.00
  0.35889E+00  0.54954E+02    0.18750E+00  0.18750E+00 -0.37500E+00  0.00000E+00  0.00000E+00  0.00000E+00    0.18507E+02  0.15737E+02 -0.34243E+02  0.21650E+01  0.51206E+01 -0.97143E+01      982.00
  0.38225E+00  0.55406E+02    0.20000E+00  0.20000E+00 -0.40000E+00  0.00000E+00  0.00000E+00  0.00000E+00    0.18647E+02  0.15820E+02 -0.34467E+02  0.22404E+01  0.51514E+01 -0.99361E+01      982.00
  0.40558E+00  0.55869E+02    0.21250E+00  0.21250E+00 -0.42500E+00  0.00000E+00  0.00000E+00  0.00000E+00    0.18820E+02  0.15883E+02 -0.34704E+02  0.23113E+01  0.51797E+01 -0.10143E+02      982.00
  0.42887E+00  0.56344E+02    0.22500E+00  0.22500E+00 -0.45000E+00  0.00000E+00  0.00000E+00  0.00000E+00    0.19020E+02  0.15931E+02 -0.34951E+02  0.23861E+01  0.52066E+01 -0.10338E+02      982.00
  0.45214E+00  0.56823E+02    0.23750E+00  0.23750E+00 -0.47500E+00  0.00000E+00  0.00000E+00  0.00000E+00    0.19235E+02  0.15972E+02 -0.35208E+02  0.24612E+01  0.52250E+01 -0.10516E+02      982.00
  0.47537E+00  0.57307E+02    0.25000E+00  0.25000E+00 -0.50000E+00  0.00000E+00  0.00000E+00  0.00000E+00    0.19465E+02  0.16008E+02 -0.35473E+02  0.25432E+01  0.52395E+01 -0.10679E+02      982.00
  0.49858E+00  0.57795E+02    0.26250E+00  0.26250E+00 -0.52500E+00  0.00000E+00  0.00000E+00  0.00000E+00    0.19707E+02  0.16039E+02 -0.35745E+02  0.26321E+01  0.52499E+01 -0.10829E+02      982.00
  0.52178E+00  0.58285E+02    0.27500E+00  0.27500E+00 -0.55000E+00  0.00000E+00  0.00000E+00  0.00000E+00    0.19957E+02  0.16068E+02 -0.36025E+02  0.27265E+01  0.52553E+01 -0.10964E+02      982.00
  0.54495E+00  0.58773E+02    0.28750E+00  0.28750E+00 -0.57500E+00  0.00000E+00  0.00000E+00  0.00000E+00    0.20212E+02  0.16095E+02 -0.36308E+02  0.28261E+01  0.52559E+01 -0.11085E+02      982.00
  0.56812E+00  0.59252E+02    0.30000E+00  0.30000E+00 -0.60000E+00  0.00000E+00  0.00000E+00  0.00000E+00    0.20471E+02  0.16123E+02 -0.36594E+02  0.29188E+01  0.52488E+01 -0.11187E+02      982.00
  0.59128E+00  0.59731E+02    0.31250E+00  0.31250E+00 -0.62500E+00  0.00000E+00  0.00000E+00  0.00000E+00    0.20733E+02  0.16149E+02 -0.36882E+02  0.30232E+01  0.52391E+01 -0.11279E+02      982.00
  0.61444E+00  0.60203E+02    0.32500E+00  0.32500E+00 -0.65000E+00  0.00000E+00  0.00000E+00  0.00000E+00    0.20996E+02  0.16175E+02 -0.37171E+02  0.31292E+01  0.52234E+01 -0.11357E+02      982.00
  0.63759E+00  0.60666E+02    0.33750E+00  0.33750E+00 -0.67500E+00  0.00000E+00  0.00000E+00  0.00000E+00    0.21257E+02  0.16203E+02 -0.37459E+02  0.32353E+01  0.52018E+01 -0.11422E+02      982.00
  0.66074E+00  0.61118E+02    0.35000E+00  0.35000E+00 -0.70000E+00  0.00000E+00  0.00000E+00  0.00000E+00    0.21515E+02  0.16231E+02 -0.37747E+02  0.33407E+01  0.51744E+01 -0.11473E+02      982.00
  0.68390E+00  0.61561E+02    0.36250E+00  0.36250E+00 -0.72500E+00  0.00000E+00  0.00000E+00  0.00000E+00    0.21775E+02  0.16258E+02 -0.38033E+02  0.34352E+01  0.51431E+01 -0.11511E+02      982.00
  0.70707E+00  0.61990E+02    0.37500E+00  0.37500E+00 -0.75000E+00  0.00000E+00  0.00000E+00  0.00000E+00    0.22026E+02  0.16289E+02 -0.38314E+02  0.35361E+01  0.51054E+01 -0.11539E+02      982.00
  0.73025E+00  0.62406E+02    0.38750E+00  0.38750E+00 -0.77500E+00  0.00000E+00  0.00000E+00  0.00000E+00    0.22271E+02  0.16321E+02 -0.38592E+02  0.36344E+01  0.50626E+01 -0.11555E+02      982.00
  0.75344E+00  0.62809E+02    0.40000E+00  0.40000E+00 -0.80000E+00  0.00000E+00  0.00000E+00  0.00000E+00    0.22509E+02  0.16354E+02 -0.38864E+02  0.37295E+01  0.50152E+01 -0.11561E+02      982.00
  0.77664E+00  0.63201E+02    0.41250E+00  0.41250E+00 -0.82500E+00  0.00000E+00  0.00000E+00  0.00000E+00    0.22745E+02  0.16390E+02 -0.39135E+02  0.38164E+01  0.49630E+01 -0.11556E+02      982.00
  0.79986E+00  0.63575E+02    0.42500E+00  0.42500E+00 -0.85000E+00  0.00000E+00  0.00000E+00  0.00000E+00    0.22970E+02  0.16425E+02 -0.39395E+02  0.39041E+01  0.49081E+01 -0.11543E+02      982.00
  0.82310E+00  0.63935E+02    0.43750E+00  0.43750E+00 -0.87500E+00  0.00000E+00  0.00000E+00  0.00000E+00    0.23189E+02  0.16461E+02 -0.39650E+02  0.39879E+01  0.48498E+01 -0.11522E+02      982.00
  0.84636E+00  0.64280E+02    0.45000E+00  0.45000E+00 -0.90000E+00  0.00000E+00  0.00000E+00  0.00000E+00    0.23400E+02  0.16497E+02 -0.39897E+02  0.40677E+01  0.47888E+01 -0.11493E+02      982.00
  0.86963E+00  0.64611E+02    0.46250E+00  0.46250E+00 -0.92500E+00  0.00000E+00  0.00000E+00  0.00000E+00    0.23604E+02  0.16534E+02 -0.40138E+02  0.41434E+01  0.47254E+01 -0.11457E+02      982.00
  0.89293E+00  0.64929E+02    0.47500E+00  0.47500E+00 -0.95000E+00  0.00000E+00  0.00000E+00  0.00000E+00    0.23808E+02  0.16563E+02 -0.40371E+02  0.42092E+01  0.46653E+01 -0.11415E+02      982.00
  0.91624E+00  0.65231E+02    0.48750E+00  0.48750E+00 -0.97500E+00  0.00000E+00  0.00000E+00  0.00000E+00    0.23998E+02  0.16599E+02 -0.40596E+02  0.42765E+01  0.45987E+01 -0.11367E+02      982.00
  0.93958E+00  0.65520E+02    0.50000E+00  0.50000E+00 -0.10000E+01  0.00000E+00  0.00000E+00  0.00000E+00    0.24181E+02  0.16633E+02 -0.40814E+02  0.43402E+01  0.45308E+01 -0.11313E+02      982.00
