          Evm          Svm            E11          E22          E33          E23          E13          E12         SDEV11       SDEV22       SDEV33       SDEV23       SDEV13       SDEV12      TEMP
  0.00000E+00  0.63082E+02    0.00000E+00  0.00000E+00  0.00000E+00  0.00000E+00  0.00000E+00  0.00000E+00    0.21067E+02  0.18861E+02 -0.39928E+02 -0.32074E+01  0.27480E+01  0.10571E+02      982.00
  0.23735E-01  0.63071E+02    0.12500E-01  0.12500E-01 -0.25000E-01  0.00000E+00  0.00000E+00  0.00000E+00    0.21318E+02  0.18651E+02 -0.39969E+02 -0.30011E+01  0.28040E+01  0.10450E+02      982.00
  0.47500E-01  0.63095E+02    0.25000E-01  0.25000E-01 -0.50000E-01  0.00000E+00  0.00000E+00  0.00000E+00    0.21515E+02  0.18505E+02 -0.40020E+02 -0.28160E+01  0.28422E+01  0.10368E+02      982.00
  0.71285E-01  0.63163E+02    0.37500E-01  0.37500E-01 -0.75000E-01  0.00000E+00  0.00000E+00  0.00000E+00    0.21714E+02  0.18374E+02 -0.40088E+02 -0.26576E+01  0.28604E+01  0.10322E+02      982.00
  0.95086E-01  0.63249E+02    0.50000E-01  0.50000E-01 -0.10000E+00  0.00000E+00  0.00000E+00  0.00000E+00    0.21893E+02  0.18263E+02 -0.40156E+02 -0.25266E+01  0.28593E+01  0.10309E+02      982.00
  0.11889E+00  0.63382E+02    0.62500E-01  0.62500E-01 -0.12500E+00  0.00000E+00  0.00000E+00  0.00000E+00    0.22064E+02  0.18181E+02 -0.40246E+02 -0.24235E+01  0.28468E+01  0.10322E+02      982.00
  0.14271E+00  0.63535E+02    0.75000E-01  0.75000E-01 -0.15000E+00  0.00000E+00  0.00000E+00  0.00000E+00    0.22222E+02  0.18119E+02 -0.40341E+02 -0.23416E+01  0.28232E+01  0.10361E+02      982.00
  0.16652E+00  0.63725E+02    0.87500E-01  0.87500E-01 -0.17500E+00  0.00000E+00  0.00000E+00  0.00000E+00    0.22381E+02  0.18073E+02 -0.40454E+02 -0.22798E+01  0.27920E+01  0.10420E+02      982.00
  0.19032E+00  0.63942E+02    0.10000E+00  0.10000E+00 -0.20000E+00  0.00000E+00  0.00000E+00  0.00000E+00    0.22525E+02  0.18056E+02 -0.40580E+02 -0.22355E+01  0.27614E+01  0.10496E+02      982.00
  0.21412E+00  0.64171E+02    0.11250E+00  0.11250E+00 -0.22500E+00  0.00000E+00  0.00000E+00  0.00000E+00    0.22664E+02  0.18046E+02 -0.40709E+02 -0.22047E+01  0.27254E+01  0.10587E+02      982.00
  0.23791E+00  0.64423E+02    0.12500E+00  0.12500E+00 -0.25000E+00  0.00000E+00  0.00000E+00  0.00000E+00    0.22789E+02  0.18063E+02 -0.40852E+02 -0.21876E+01  0.26964E+01  0.10684E+02      982.00
  0.26169E+00  0.64690E+02    0.13750E+00  0.13750E+00 -0.27500E+00  0.00000E+00  0.00000E+00  0.00000E+00    0.22907E+02  0.18096E+02 -0.41003E+02 -0.21812E+01  0.26692E+01  0.10786E+02      982.00
  0.28546E+00  0.64969E+02    0.15000E+00  0.15000E+00 -0.30000E+00  0.00000E+00  0.00000E+00  0.00000E+00    0.23023E+02  0.18135E+02 -0.41158E+02 -0.21815E+01  0.26379E+01  0.10899E+02      982.00
  0.30921E+00  0.65242E+02    0.16250E+00  0.16250E+00 -0.32500E+00  0.00000E+00  0.00000E+00  0.00000E+00    0.23123E+02  0.18190E+02 -0.41313E+02 -0.21907E+01  0.26151E+01  0.11002E+02      982.00
  0.33296E+00  0.65518E+02    0.17500E+00  0.17500E+00 -0.35000E+00  0.00000E+00  0.00000E+00  0.00000E+00    0.23215E+02  0.18256E+02 -0.41471E+02 -0.22048E+01  0.25935E+01  0.11102E+02      982.00
  0.35670E+00  0.65805E+02    0.18750E+00  0.18750E+00 -0.37500E+00  0.00000E+00  0.00000E+00  0.00000E+00    0.23307E+02  0.18325E+02 -0.41632E+02 -0.22224E+01  0.25671E+01  0.11215E+02      982.00
  0.38042E+00  0.66065E+02    0.20000E+00  0.20000E+00 -0.40000E+00  0.00000E+00  0.00000E+00  0.00000E+00    0.23381E+02  0.18402E+02 -0.41783E+02 -0.22430E+01  0.25466E+01  0.11306E+02      982.00
  0.40414E+00  0.66318E+02    0.21250E+00  0.21250E+00 -0.42500E+00  0.00000E+00  0.00000E+00  0.00000E+00    0.23447E+02  0.18484E+02 -0.41930E+02 -0.22648E+01  0.25273E+01  0.11391E+02      982.00
  0.42785E+00  0.66522E+02    0.22500E+00  0.22500E+00 -0.45000E+00  0.00000E+00  0.00000E+00  0.00000E+00    0.23492E+02  0.18557E+02 -0.42049E+02 -0.22866E+01  0.25084E+01  0.11461E+02      982.00
  0.45155E+00  0.66750E+02    0.23750E+00  0.23750E+00 -0.47500E+00  0.00000E+00  0.00000E+00  0.00000E+00    0.23544E+02  0.18640E+02 -0.42184E+02 -0.23094E+01  0.24890E+01  0.11535E+02      982.00
  0.47525E+00  0.66970E+02    0.25000E+00  0.25000E+00 -0.50000E+00  0.00000E+00  0.00000E+00  0.00000E+00    0.23590E+02  0.18724E+02 -0.42314E+02 -0.23312E+01  0.24683E+01  0.11606E+02      982.00
  0.49894E+00  0.67175E+02    0.26250E+00  0.26250E+00 -0.52500E+00  0.00000E+00  0.00000E+00  0.00000E+00    0.23630E+02  0.18806E+02 -0.42436E+02 -0.23534E+01  0.24478E+01  0.11670E+02      982.00
  0.52263E+00  0.67368E+02    0.27500E+00  0.27500E+00 -0.55000E+00  0.00000E+00  0.00000E+00  0.00000E+00    0.23665E+02  0.18887E+02 -0.42552E+02 -0.23739E+01  0.24269E+01  0.11728E+02      982.00
  0.54632E+00  0.67549E+02    0.28750E+00  0.28750E+00 -0.57500E+00  0.00000E+00  0.00000E+00  0.00000E+00    0.23695E+02  0.18967E+02 -0.42662E+02 -0.23936E+01  0.24059E+01  0.11782E+02      982.00
  0.57000E+00  0.67720E+02    0.30000E+00  0.30000E+00 -0.60000E+00  0.00000E+00  0.00000E+00  0.00000E+00    0.23720E+02  0.19045E+02 -0.42766E+02 -0.24120E+01  0.23841E+01  0.11833E+02      982.00
  0.59369E+00  0.67889E+02    0.31250E+00  0.31250E+00 -0.62500E+00  0.00000E+00  0.00000E+00  0.00000E+00    0.23739E+02  0.19129E+02 -0.42868E+02 -0.24319E+01  0.23566E+01  0.11887E+02      982.00
  0.61737E+00  0.68032E+02    0.32500E+00  0.32500E+00 -0.65000E+00  0.00000E+00  0.00000E+00  0.00000E+00    0.23754E+02  0.19202E+02 -0.42956E+02 -0.24486E+01  0.23349E+01  0.11926E+02      982.00
  0.64104E+00  0.68170E+02    0.33750E+00  0.33750E+00 -0.67500E+00  0.00000E+00  0.00000E+00  0.00000E+00    0.23768E+02  0.19273E+02 -0.43041E+02 -0.24630E+01  0.23127E+01  0.11964E+02      982.00
  0.66472E+00  0.68290E+02    0.35000E+00  0.35000E+00 -0.70000E+00  0.00000E+00  0.00000E+00  0.00000E+00    0.23777E+02  0.19339E+02 -0.43116E+02 -0.24758E+01  0.22915E+01  0.11997E+02      982.00
  0.68840E+00  0.68404E+02    0.36250E+00  0.36250E+00 -0.72500E+00  0.00000E+00  0.00000E+00  0.00000E+00    0.23785E+02  0.19403E+02 -0.43188E+02 -0.24877E+01  0.22698E+01  0.12027E+02      982.00
  0.71207E+00  0.68516E+02    0.37500E+00  0.37500E+00 -0.75000E+00  0.00000E+00  0.00000E+00  0.00000E+00    0.23792E+02  0.19466E+02 -0.43259E+02 -0.24987E+01  0.22496E+01  0.12056E+02      982.00
  0.73575E+00  0.68614E+02    0.38750E+00  0.38750E+00 -0.77500E+00  0.00000E+00  0.00000E+00  0.00000E+00    0.23797E+02  0.19525E+02 -0.43322E+02 -0.25088E+01  0.22295E+01  0.12079E+02      982.00
  0.75943E+00  0.68683E+02    0.40000E+00  0.40000E+00 -0.80000E+00  0.00000E+00  0.00000E+00  0.00000E+00    0.23792E+02  0.19571E+02 -0.43363E+02 -0.25197E+01  0.22148E+01  0.12102E+02      982.00
  0.78310E+00  0.68772E+02    0.41250E+00  0.41250E+00 -0.82500E+00  0.00000E+00  0.00000E+00  0.00000E+00    0.23795E+02  0.19626E+02 -0.43421E+02 -0.25280E+01  0.21958E+01  0.12122E+02      982.00
  0.80678E+00  0.68854E+02    0.42500E+00  0.42500E+00 -0.85000E+00  0.00000E+00  0.00000E+00  0.00000E+00    0.23796E+02  0.19678E+02 -0.43473E+02 -0.25354E+01  0.21772E+01  0.12143E+02      982.00
  0.83046E+00  0.68933E+02    0.43750E+00  0.43750E+00 -0.87500E+00  0.00000E+00  0.00000E+00  0.00000E+00    0.23796E+02  0.19729E+02 -0.43525E+02 -0.25422E+01  0.21594E+01  0.12160E+02      982.00
  0.85413E+00  0.69016E+02    0.45000E+00  0.45000E+00 -0.90000E+00  0.00000E+00  0.00000E+00  0.00000E+00    0.23790E+02  0.19788E+02 -0.43578E+02 -0.25500E+01  0.21325E+01  0.12183E+02      982.00
  0.87781E+00  0.69076E+02    0.46250E+00  0.46250E+00 -0.92500E+00  0.00000E+00  0.00000E+00  0.00000E+00    0.23795E+02  0.19822E+02 -0.43617E+02 -0.25540E+01  0.21239E+01  0.12193E+02      982.00
  0.90149E+00  0.69134E+02    0.47500E+00  0.47500E+00 -0.95000E+00  0.00000E+00  0.00000E+00  0.00000E+00    0.23782E+02  0.19873E+02 -0.43655E+02 -0.25604E+01  0.21007E+01  0.12210E+02      982.00
  0.92517E+00  0.69200E+02    0.48750E+00  0.48750E+00 -0.97500E+00  0.00000E+00  0.00000E+00  0.00000E+00    0.23781E+02  0.19917E+02 -0.43698E+02 -0.25652E+01  0.20836E+01  0.12224E+02      982.00
  0.94885E+00  0.69249E+02    0.50000E+00  0.50000E+00 -0.10000E+01  0.00000E+00  0.00000E+00  0.00000E+00    0.23776E+02  0.19954E+02 -0.43730E+02 -0.25694E+01  0.20690E+01  0.12235E+02      982.00
