          Evm          Svm            E11          E22          E33          E23          E13          E12         SDEV11       SDEV22       SDEV33       SDEV23       SDEV13       SDEV12      TEMP
  0.00000E+00  0.54354E+02    0.00000E+00  0.00000E+00  0.00000E+00  0.00000E+00  0.00000E+00  0.00000E+00    0.20340E+02  0.12695E+02 -0.33035E+02  0.53129E+01  0.68265E+01 -0.87662E+01      982.00
  0.22792E-01  0.54802E+02    0.12500E-01  0.12500E-01 -0.25000E-01  0.00000E+00  0.00000E+00  0.00000E+00    0.20251E+02  0.13050E+02 -0.33301E+02  0.54004E+01  0.69251E+01 -0.89063E+01      982.00
  0.45579E-01  0.55221E+02    0.25000E-01  0.25000E-01 -0.50000E-01  0.00000E+00  0.00000E+00  0.00000E+00    0.20234E+02  0.13336E+02 -0.33569E+02  0.54400E+01  0.69767E+01 -0.90062E+01      982.00
  0.68375E-01  0.55625E+02    0.37500E-01  0.37500E-01 -0.75000E-01  0.00000E+00  0.00000E+00  0.00000E+00    0.20256E+02  0.13585E+02 -0.33841E+02  0.54568E+01  0.69962E+01 -0.90895E+01      982.00
  0.91189E-01  0.56022E+02    0.50000E-01  0.50000E-01 -0.10000E+00  0.00000E+00  0.00000E+00  0.00000E+00    0.20313E+02  0.13804E+02 -0.34116E+02  0.54558E+01  0.69915E+01 -0.91642E+01      982.00
  0.11403E+00  0.56424E+02    0.62500E-01  0.62500E-01 -0.12500E+00  0.00000E+00  0.00000E+00  0.00000E+00    0.20403E+02  0.13996E+02 -0.34400E+02  0.54411E+01  0.69680E+01 -0.92355E+01      982.00
  0.13689E+00  0.56858E+02    0.75000E-01  0.75000E-01 -0.15000E+00  0.00000E+00  0.00000E+00  0.00000E+00    0.20524E+02  0.14175E+02 -0.34699E+02  0.54222E+01  0.69360E+01 -0.93293E+01      982.00
  0.15977E+00  0.57325E+02    0.87500E-01  0.87500E-01 -0.17500E+00  0.00000E+00  0.00000E+00  0.00000E+00    0.20683E+02  0.14339E+02 -0.35022E+02  0.53940E+01  0.68930E+01 -0.94241E+01      982.00
  0.18268E+00  0.57767E+02    0.10000E+00  0.10000E+00 -0.20000E+00  0.00000E+00  0.00000E+00  0.00000E+00    0.20852E+02  0.14483E+02 -0.35335E+02  0.53547E+01  0.68371E+01 -0.95063E+01      982.00
  0.20562E+00  0.58222E+02    0.11250E+00  0.11250E+00 -0.22500E+00  0.00000E+00  0.00000E+00  0.00000E+00    0.21031E+02  0.14624E+02 -0.35655E+02  0.53157E+01  0.67778E+01 -0.95923E+01      982.00
  0.22859E+00  0.58635E+02    0.12500E+00  0.12500E+00 -0.25000E+00  0.00000E+00  0.00000E+00  0.00000E+00    0.21183E+02  0.14774E+02 -0.35957E+02  0.52783E+01  0.67128E+01 -0.96522E+01      982.00
  0.25158E+00  0.59144E+02    0.13750E+00  0.13750E+00 -0.27500E+00  0.00000E+00  0.00000E+00  0.00000E+00    0.21380E+02  0.14925E+02 -0.36306E+02  0.52439E+01  0.66515E+01 -0.97596E+01      982.00
  0.27460E+00  0.59628E+02    0.15000E+00  0.15000E+00 -0.30000E+00  0.00000E+00  0.00000E+00  0.00000E+00    0.21558E+02  0.15086E+02 -0.36644E+02  0.52116E+01  0.65894E+01 -0.98503E+01      982.00
  0.29765E+00  0.60157E+02    0.16250E+00  0.16250E+00 -0.32500E+00  0.00000E+00  0.00000E+00  0.00000E+00    0.21740E+02  0.15270E+02 -0.37010E+02  0.51871E+01  0.65294E+01 -0.99495E+01      982.00
  0.32072E+00  0.60643E+02    0.17500E+00  0.17500E+00 -0.35000E+00  0.00000E+00  0.00000E+00  0.00000E+00    0.21898E+02  0.15453E+02 -0.37351E+02  0.51609E+01  0.64708E+01 -0.10033E+02      982.00
  0.34382E+00  0.61127E+02    0.18750E+00  0.18750E+00 -0.37500E+00  0.00000E+00  0.00000E+00  0.00000E+00    0.22044E+02  0.15648E+02 -0.37692E+02  0.51363E+01  0.64149E+01 -0.10110E+02      982.00
  0.36694E+00  0.61560E+02    0.20000E+00  0.20000E+00 -0.40000E+00  0.00000E+00  0.00000E+00  0.00000E+00    0.22169E+02  0.15833E+02 -0.38002E+02  0.51072E+01  0.63651E+01 -0.10173E+02      982.00
  0.39009E+00  0.62028E+02    0.21250E+00  0.21250E+00 -0.42500E+00  0.00000E+00  0.00000E+00  0.00000E+00    0.22292E+02  0.16041E+02 -0.38333E+02  0.50844E+01  0.63192E+01 -0.10240E+02      982.00
  0.41326E+00  0.62460E+02    0.22500E+00  0.22500E+00 -0.45000E+00  0.00000E+00  0.00000E+00  0.00000E+00    0.22403E+02  0.16239E+02 -0.38642E+02  0.50580E+01  0.62803E+01 -0.10295E+02      982.00
  0.43646E+00  0.62898E+02    0.23750E+00  0.23750E+00 -0.47500E+00  0.00000E+00  0.00000E+00  0.00000E+00    0.22499E+02  0.16458E+02 -0.38957E+02  0.50341E+01  0.62405E+01 -0.10348E+02      982.00
  0.45969E+00  0.63311E+02    0.25000E+00  0.25000E+00 -0.50000E+00  0.00000E+00  0.00000E+00  0.00000E+00    0.22580E+02  0.16677E+02 -0.39257E+02  0.50091E+01  0.62029E+01 -0.10391E+02      982.00
  0.48294E+00  0.63706E+02    0.26250E+00  0.26250E+00 -0.52500E+00  0.00000E+00  0.00000E+00  0.00000E+00    0.22648E+02  0.16900E+02 -0.39549E+02  0.49812E+01  0.61658E+01 -0.10424E+02      982.00
  0.50622E+00  0.64088E+02    0.27500E+00  0.27500E+00 -0.55000E+00  0.00000E+00  0.00000E+00  0.00000E+00    0.22705E+02  0.17125E+02 -0.39830E+02  0.49546E+01  0.61343E+01 -0.10454E+02      982.00
  0.52953E+00  0.64453E+02    0.28750E+00  0.28750E+00 -0.57500E+00  0.00000E+00  0.00000E+00  0.00000E+00    0.22752E+02  0.17351E+02 -0.40102E+02  0.49253E+01  0.61057E+01 -0.10475E+02      982.00
  0.55286E+00  0.64792E+02    0.30000E+00  0.30000E+00 -0.60000E+00  0.00000E+00  0.00000E+00  0.00000E+00    0.22785E+02  0.17575E+02 -0.40360E+02  0.48941E+01  0.60773E+01 -0.10488E+02      982.00
  0.57622E+00  0.65117E+02    0.31250E+00  0.31250E+00 -0.62500E+00  0.00000E+00  0.00000E+00  0.00000E+00    0.22809E+02  0.17798E+02 -0.40607E+02  0.48617E+01  0.60518E+01 -0.10497E+02      982.00
  0.59960E+00  0.65412E+02    0.32500E+00  0.32500E+00 -0.65000E+00  0.00000E+00  0.00000E+00  0.00000E+00    0.22809E+02  0.18027E+02 -0.40836E+02  0.48301E+01  0.60296E+01 -0.10495E+02      982.00
  0.62301E+00  0.65681E+02    0.33750E+00  0.33750E+00 -0.67500E+00  0.00000E+00  0.00000E+00  0.00000E+00    0.22826E+02  0.18218E+02 -0.41044E+02  0.47931E+01  0.60087E+01 -0.10496E+02      982.00
  0.64645E+00  0.65956E+02    0.35000E+00  0.35000E+00 -0.70000E+00  0.00000E+00  0.00000E+00  0.00000E+00    0.22809E+02  0.18455E+02 -0.41265E+02  0.47545E+01  0.59856E+01 -0.10479E+02      982.00
  0.66991E+00  0.66201E+02    0.36250E+00  0.36250E+00 -0.72500E+00  0.00000E+00  0.00000E+00  0.00000E+00    0.22797E+02  0.18664E+02 -0.41462E+02  0.47147E+01  0.59649E+01 -0.10464E+02      982.00
  0.69340E+00  0.66432E+02    0.37500E+00  0.37500E+00 -0.75000E+00  0.00000E+00  0.00000E+00  0.00000E+00    0.22780E+02  0.18868E+02 -0.41648E+02  0.46735E+01  0.59467E+01 -0.10446E+02      982.00
  0.71691E+00  0.66648E+02    0.38750E+00  0.38750E+00 -0.77500E+00  0.00000E+00  0.00000E+00  0.00000E+00    0.22757E+02  0.19067E+02 -0.41824E+02  0.46315E+01  0.59307E+01 -0.10425E+02      982.00
  0.74044E+00  0.66850E+02    0.40000E+00  0.40000E+00 -0.80000E+00  0.00000E+00  0.00000E+00  0.00000E+00    0.22728E+02  0.19263E+02 -0.41991E+02  0.45879E+01  0.59150E+01 -0.10401E+02      982.00
  0.76399E+00  0.67037E+02    0.41250E+00  0.41250E+00 -0.82500E+00  0.00000E+00  0.00000E+00  0.00000E+00    0.22694E+02  0.19454E+02 -0.42148E+02  0.45437E+01  0.59003E+01 -0.10371E+02      982.00
  0.78757E+00  0.67214E+02    0.42500E+00  0.42500E+00 -0.85000E+00  0.00000E+00  0.00000E+00  0.00000E+00    0.22656E+02  0.19641E+02 -0.42298E+02  0.44991E+01  0.58871E+01 -0.10341E+02      982.00
  0.81117E+00  0.67375E+02    0.43750E+00  0.43750E+00 -0.87500E+00  0.00000E+00  0.00000E+00  0.00000E+00    0.22613E+02  0.19823E+02 -0.42436E+02  0.44525E+01  0.58750E+01 -0.10308E+02      982.00
  0.83479E+00  0.67523E+02    0.45000E+00  0.45000E+00 -0.90000E+00  0.00000E+00  0.00000E+00  0.00000E+00    0.22564E+02  0.19999E+02 -0.42564E+02  0.44072E+01  0.58651E+01 -0.10274E+02      982.00
  0.85843E+00  0.67658E+02    0.46250E+00  0.46250E+00 -0.92500E+00  0.00000E+00  0.00000E+00  0.00000E+00    0.22512E+02  0.20171E+02 -0.42683E+02  0.43590E+01  0.58563E+01 -0.10236E+02      982.00
  0.88208E+00  0.67725E+02    0.47500E+00  0.47500E+00 -0.95000E+00  0.00000E+00  0.00000E+00  0.00000E+00    0.22465E+02  0.20300E+02 -0.42765E+02  0.42947E+01  0.58141E+01 -0.10191E+02      982.00
  0.90576E+00  0.67788E+02    0.48750E+00  0.48750E+00 -0.97500E+00  0.00000E+00  0.00000E+00  0.00000E+00    0.22402E+02  0.20440E+02 -0.42842E+02  0.42364E+01  0.57828E+01 -0.10140E+02      982.00
  0.92946E+00  0.67835E+02    0.50000E+00  0.50000E+00 -0.10000E+01  0.00000E+00  0.00000E+00  0.00000E+00    0.22334E+02  0.20574E+02 -0.42908E+02  0.41748E+01  0.57522E+01 -0.10088E+02      982.00
