          Evm          Svm            E11          E22          E33          E23          E13          E12         SDEV11       SDEV22       SDEV33       SDEV23       SDEV13       SDEV12      TEMP
  0.00000E+00  0.58104E+02    0.00000E+00  0.00000E+00  0.00000E+00  0.00000E+00  0.00000E+00  0.00000E+00    0.16657E+02  0.19160E+02 -0.35817E+02 -0.30937E+01  0.10517E+01  0.12288E+02      982.00
  0.23116E-01  0.58116E+02    0.12500E-01  0.12500E-01 -0.25000E-01  0.00000E+00  0.00000E+00  0.00000E+00    0.17023E+02  0.18742E+02 -0.35765E+02 -0.29347E+01  0.13181E+01  0.12466E+02      982.00
  0.46194E-01  0.58213E+02    0.25000E-01  0.25000E-01 -0.50000E-01  0.00000E+00  0.00000E+00  0.00000E+00    0.17308E+02  0.18440E+02 -0.35748E+02 -0.28347E+01  0.15247E+01  0.12667E+02      982.00
  0.69222E-01  0.58396E+02    0.37500E-01  0.37500E-01 -0.75000E-01  0.00000E+00  0.00000E+00  0.00000E+00    0.17551E+02  0.18218E+02 -0.35770E+02 -0.27588E+01  0.16970E+01  0.12902E+02      982.00
  0.92192E-01  0.58644E+02    0.50000E-01  0.50000E-01 -0.10000E+00  0.00000E+00  0.00000E+00  0.00000E+00    0.17753E+02  0.18068E+02 -0.35821E+02 -0.27019E+01  0.18347E+01  0.13167E+02      982.00
  0.11510E+00  0.58948E+02    0.62500E-01  0.62500E-01 -0.12500E+00  0.00000E+00  0.00000E+00  0.00000E+00    0.17928E+02  0.17969E+02 -0.35898E+02 -0.26539E+01  0.19470E+01  0.13453E+02      982.00
  0.13793E+00  0.59289E+02    0.75000E-01  0.75000E-01 -0.15000E+00  0.00000E+00  0.00000E+00  0.00000E+00    0.18079E+02  0.17916E+02 -0.35994E+02 -0.26129E+01  0.20333E+01  0.13750E+02      982.00
  0.16070E+00  0.59651E+02    0.87500E-01  0.87500E-01 -0.17500E+00  0.00000E+00  0.00000E+00  0.00000E+00    0.18210E+02  0.17892E+02 -0.36102E+02 -0.25730E+01  0.20992E+01  0.14055E+02      982.00
  0.18340E+00  0.60030E+02    0.10000E+00  0.10000E+00 -0.20000E+00  0.00000E+00  0.00000E+00  0.00000E+00    0.18321E+02  0.17901E+02 -0.36222E+02 -0.25371E+01  0.21402E+01  0.14356E+02      982.00
  0.20602E+00  0.60400E+02    0.11250E+00  0.11250E+00 -0.22500E+00  0.00000E+00  0.00000E+00  0.00000E+00    0.18408E+02  0.17931E+02 -0.36340E+02 -0.25100E+01  0.21582E+01  0.14650E+02      982.00
  0.22859E+00  0.60760E+02    0.12500E+00  0.12500E+00 -0.25000E+00  0.00000E+00  0.00000E+00  0.00000E+00    0.18486E+02  0.17971E+02 -0.36458E+02 -0.24750E+01  0.21630E+01  0.14928E+02      982.00
  0.25109E+00  0.61117E+02    0.13750E+00  0.13750E+00 -0.27500E+00  0.00000E+00  0.00000E+00  0.00000E+00    0.18557E+02  0.18022E+02 -0.36579E+02 -0.24370E+01  0.21524E+01  0.15196E+02      982.00
  0.27353E+00  0.61486E+02    0.15000E+00  0.15000E+00 -0.30000E+00  0.00000E+00  0.00000E+00  0.00000E+00    0.18622E+02  0.18078E+02 -0.36700E+02 -0.23802E+01  0.21197E+01  0.15484E+02      982.00
  0.29591E+00  0.61803E+02    0.16250E+00  0.16250E+00 -0.32500E+00  0.00000E+00  0.00000E+00  0.00000E+00    0.18673E+02  0.18135E+02 -0.36808E+02 -0.23472E+01  0.20871E+01  0.15721E+02      982.00
  0.31825E+00  0.62100E+02    0.17500E+00  0.17500E+00 -0.35000E+00  0.00000E+00  0.00000E+00  0.00000E+00    0.18720E+02  0.18190E+02 -0.36910E+02 -0.23155E+01  0.20501E+01  0.15940E+02      982.00
  0.34054E+00  0.62378E+02    0.18750E+00  0.18750E+00 -0.37500E+00  0.00000E+00  0.00000E+00  0.00000E+00    0.18765E+02  0.18243E+02 -0.37008E+02 -0.22841E+01  0.20110E+01  0.16141E+02      982.00
  0.36278E+00  0.62643E+02    0.20000E+00  0.20000E+00 -0.40000E+00  0.00000E+00  0.00000E+00  0.00000E+00    0.18810E+02  0.18293E+02 -0.37103E+02 -0.22533E+01  0.19709E+01  0.16326E+02      982.00
  0.38499E+00  0.62846E+02    0.21250E+00  0.21250E+00 -0.42500E+00  0.00000E+00  0.00000E+00  0.00000E+00    0.18848E+02  0.18329E+02 -0.37177E+02 -0.22424E+01  0.19512E+01  0.16463E+02      982.00
  0.40718E+00  0.63071E+02    0.22500E+00  0.22500E+00 -0.45000E+00  0.00000E+00  0.00000E+00  0.00000E+00    0.18892E+02  0.18368E+02 -0.37260E+02 -0.22147E+01  0.19139E+01  0.16617E+02      982.00
  0.42933E+00  0.63281E+02    0.23750E+00  0.23750E+00 -0.47500E+00  0.00000E+00  0.00000E+00  0.00000E+00    0.18932E+02  0.18404E+02 -0.37337E+02 -0.21806E+01  0.18667E+01  0.16763E+02      982.00
  0.45146E+00  0.63476E+02    0.25000E+00  0.25000E+00 -0.50000E+00  0.00000E+00  0.00000E+00  0.00000E+00    0.18975E+02  0.18435E+02 -0.37410E+02 -0.21590E+01  0.18337E+01  0.16892E+02      982.00
  0.47356E+00  0.63641E+02    0.26250E+00  0.26250E+00 -0.52500E+00  0.00000E+00  0.00000E+00  0.00000E+00    0.19013E+02  0.18458E+02 -0.37471E+02 -0.21392E+01  0.18029E+01  0.17003E+02      982.00
  0.49564E+00  0.63809E+02    0.27500E+00  0.27500E+00 -0.55000E+00  0.00000E+00  0.00000E+00  0.00000E+00    0.19057E+02  0.18480E+02 -0.37537E+02 -0.21229E+01  0.17765E+01  0.17107E+02      982.00
  0.51770E+00  0.63963E+02    0.28750E+00  0.28750E+00 -0.57500E+00  0.00000E+00  0.00000E+00  0.00000E+00    0.19100E+02  0.18498E+02 -0.37598E+02 -0.21094E+01  0.17520E+01  0.17202E+02      982.00
  0.53974E+00  0.64104E+02    0.30000E+00  0.30000E+00 -0.60000E+00  0.00000E+00  0.00000E+00  0.00000E+00    0.19142E+02  0.18513E+02 -0.37655E+02 -0.20981E+01  0.17307E+01  0.17287E+02      982.00
  0.56177E+00  0.64232E+02    0.31250E+00  0.31250E+00 -0.62500E+00  0.00000E+00  0.00000E+00  0.00000E+00    0.19183E+02  0.18525E+02 -0.37708E+02 -0.20958E+01  0.17221E+01  0.17359E+02      982.00
  0.58378E+00  0.64356E+02    0.32500E+00  0.32500E+00 -0.65000E+00  0.00000E+00  0.00000E+00  0.00000E+00    0.19226E+02  0.18535E+02 -0.37761E+02 -0.20875E+01  0.17049E+01  0.17429E+02      982.00
  0.60579E+00  0.64442E+02    0.33750E+00  0.33750E+00 -0.67500E+00  0.00000E+00  0.00000E+00  0.00000E+00    0.19260E+02  0.18535E+02 -0.37796E+02 -0.20768E+01  0.16836E+01  0.17481E+02      982.00
  0.62778E+00  0.64552E+02    0.35000E+00  0.35000E+00 -0.70000E+00  0.00000E+00  0.00000E+00  0.00000E+00    0.19302E+02  0.18541E+02 -0.37843E+02 -0.20724E+01  0.16708E+01  0.17541E+02      982.00
  0.64977E+00  0.64652E+02    0.36250E+00  0.36250E+00 -0.72500E+00  0.00000E+00  0.00000E+00  0.00000E+00    0.19342E+02  0.18542E+02 -0.37884E+02 -0.20692E+01  0.16601E+01  0.17598E+02      982.00
  0.67174E+00  0.64759E+02    0.37500E+00  0.37500E+00 -0.75000E+00  0.00000E+00  0.00000E+00  0.00000E+00    0.19396E+02  0.18531E+02 -0.37927E+02 -0.20575E+01  0.16342E+01  0.17663E+02      982.00
  0.69370E+00  0.64844E+02    0.38750E+00  0.38750E+00 -0.77500E+00  0.00000E+00  0.00000E+00  0.00000E+00    0.19436E+02  0.18529E+02 -0.37965E+02 -0.20564E+01  0.16251E+01  0.17707E+02      982.00
  0.71566E+00  0.64922E+02    0.40000E+00  0.40000E+00 -0.80000E+00  0.00000E+00  0.00000E+00  0.00000E+00    0.19474E+02  0.18525E+02 -0.38000E+02 -0.20569E+01  0.16195E+01  0.17746E+02      982.00
  0.73761E+00  0.64987E+02    0.41250E+00  0.41250E+00 -0.82500E+00  0.00000E+00  0.00000E+00  0.00000E+00    0.19510E+02  0.18518E+02 -0.38028E+02 -0.20587E+01  0.16152E+01  0.17780E+02      982.00
  0.75955E+00  0.65057E+02    0.42500E+00  0.42500E+00 -0.85000E+00  0.00000E+00  0.00000E+00  0.00000E+00    0.19547E+02  0.18512E+02 -0.38060E+02 -0.20607E+01  0.16114E+01  0.17813E+02      982.00
  0.78149E+00  0.65122E+02    0.43750E+00  0.43750E+00 -0.87500E+00  0.00000E+00  0.00000E+00  0.00000E+00    0.19584E+02  0.18505E+02 -0.38089E+02 -0.20633E+01  0.16086E+01  0.17844E+02      982.00
  0.80342E+00  0.65177E+02    0.45000E+00  0.45000E+00 -0.90000E+00  0.00000E+00  0.00000E+00  0.00000E+00    0.19618E+02  0.18496E+02 -0.38114E+02 -0.20655E+01  0.16066E+01  0.17870E+02      982.00
  0.82535E+00  0.65234E+02    0.46250E+00  0.46250E+00 -0.92500E+00  0.00000E+00  0.00000E+00  0.00000E+00    0.19653E+02  0.18487E+02 -0.38140E+02 -0.20682E+01  0.16048E+01  0.17897E+02      982.00
  0.84727E+00  0.65285E+02    0.47500E+00  0.47500E+00 -0.95000E+00  0.00000E+00  0.00000E+00  0.00000E+00    0.19687E+02  0.18477E+02 -0.38164E+02 -0.20713E+01  0.16035E+01  0.17921E+02      982.00
  0.86920E+00  0.65358E+02    0.48750E+00  0.48750E+00 -0.97500E+00  0.00000E+00  0.00000E+00  0.00000E+00    0.19741E+02  0.18453E+02 -0.38194E+02 -0.20734E+01  0.15984E+01  0.17960E+02      982.00
  0.89111E+00  0.65379E+02    0.50000E+00  0.50000E+00 -0.10000E+01  0.00000E+00  0.00000E+00  0.00000E+00    0.19752E+02  0.18454E+02 -0.38206E+02 -0.20775E+01  0.16002E+01  0.17964E+02      982.00
