          Evm          Svm            E11          E22          E33          E23          E13          E12         SDEV11       SDEV22       SDEV33       SDEV23       SDEV13       SDEV12      TEMP
  0.00000E+00  0.63630E+02    0.00000E+00  0.00000E+00  0.00000E+00  0.00000E+00  0.00000E+00  0.00000E+00    0.22158E+02  0.19069E+02 -0.41228E+02  0.14741E+01 -0.44119E+01  0.71267E+01      982.00
  0.24297E-01  0.63977E+02    0.12500E-01  0.12500E-01 -0.25000E-01  0.00000E+00  0.00000E+00  0.00000E+00    0.21154E+02  0.20259E+02 -0.41413E+02  0.17421E+01 -0.42922E+01  0.75108E+01      982.00
  0.48571E-01  0.64261E+02    0.25000E-01  0.25000E-01 -0.50000E-01  0.00000E+00  0.00000E+00  0.00000E+00    0.20326E+02  0.21223E+02 -0.41549E+02  0.18647E+01 -0.41610E+01  0.77948E+01      982.00
  0.72818E-01  0.64488E+02    0.37500E-01  0.37500E-01 -0.75000E-01  0.00000E+00  0.00000E+00  0.00000E+00    0.19701E+02  0.21947E+02 -0.41648E+02  0.18618E+01 -0.40236E+01  0.80243E+01      982.00
  0.97036E-01  0.64690E+02    0.50000E-01  0.50000E-01 -0.10000E+00  0.00000E+00  0.00000E+00  0.00000E+00    0.19247E+02  0.22485E+02 -0.41732E+02  0.17793E+01 -0.38829E+01  0.82410E+01      982.00
  0.12123E+00  0.64892E+02    0.62500E-01  0.62500E-01 -0.12500E+00  0.00000E+00  0.00000E+00  0.00000E+00    0.18930E+02  0.22884E+02 -0.41815E+02  0.16506E+01 -0.37445E+01  0.84651E+01      982.00
  0.14539E+00  0.65111E+02    0.75000E-01  0.75000E-01 -0.15000E+00  0.00000E+00  0.00000E+00  0.00000E+00    0.18704E+02  0.23202E+02 -0.41906E+02  0.15075E+01 -0.36075E+01  0.87023E+01      982.00
  0.16953E+00  0.65354E+02    0.87500E-01  0.87500E-01 -0.17500E+00  0.00000E+00  0.00000E+00  0.00000E+00    0.18557E+02  0.23454E+02 -0.42011E+02  0.13593E+01 -0.34778E+01  0.89506E+01      982.00
  0.19363E+00  0.65620E+02    0.10000E+00  0.10000E+00 -0.20000E+00  0.00000E+00  0.00000E+00  0.00000E+00    0.18462E+02  0.23666E+02 -0.42128E+02  0.12174E+01 -0.33551E+01  0.92054E+01      982.00
  0.21771E+00  0.65904E+02    0.11250E+00  0.11250E+00 -0.22500E+00  0.00000E+00  0.00000E+00  0.00000E+00    0.18406E+02  0.23850E+02 -0.42256E+02  0.10864E+01 -0.32403E+01  0.94621E+01      982.00
  0.24175E+00  0.66201E+02    0.12500E+00  0.12500E+00 -0.25000E+00  0.00000E+00  0.00000E+00  0.00000E+00    0.18378E+02  0.24012E+02 -0.42390E+02  0.96725E+00 -0.31336E+01  0.97185E+01      982.00
  0.26576E+00  0.66508E+02    0.13750E+00  0.13750E+00 -0.27500E+00  0.00000E+00  0.00000E+00  0.00000E+00    0.18375E+02  0.24156E+02 -0.42531E+02  0.85861E+00 -0.30345E+01  0.99728E+01      982.00
  0.28974E+00  0.66810E+02    0.15000E+00  0.15000E+00 -0.30000E+00  0.00000E+00  0.00000E+00  0.00000E+00    0.18397E+02  0.24278E+02 -0.42675E+02  0.76093E+00 -0.29455E+01  0.10204E+02      982.00
  0.31370E+00  0.67099E+02    0.16250E+00  0.16250E+00 -0.32500E+00  0.00000E+00  0.00000E+00  0.00000E+00    0.18425E+02  0.24384E+02 -0.42809E+02  0.67956E+00 -0.28647E+01  0.10428E+02      982.00
  0.33762E+00  0.67412E+02    0.17500E+00  0.17500E+00 -0.35000E+00  0.00000E+00  0.00000E+00  0.00000E+00    0.18472E+02  0.24487E+02 -0.42959E+02  0.60046E+00 -0.27850E+01  0.10656E+02      982.00
  0.36152E+00  0.67687E+02    0.18750E+00  0.18750E+00 -0.37500E+00  0.00000E+00  0.00000E+00  0.00000E+00    0.18529E+02  0.24566E+02 -0.43095E+02  0.53674E+00 -0.27170E+01  0.10840E+02      982.00
  0.38539E+00  0.67946E+02    0.20000E+00  0.20000E+00 -0.40000E+00  0.00000E+00  0.00000E+00  0.00000E+00    0.18593E+02  0.24632E+02 -0.43225E+02  0.48190E+00 -0.26548E+01  0.11009E+02      982.00
  0.40925E+00  0.68189E+02    0.21250E+00  0.21250E+00 -0.42500E+00  0.00000E+00  0.00000E+00  0.00000E+00    0.18660E+02  0.24688E+02 -0.43348E+02  0.43523E+00 -0.25975E+01  0.11162E+02      982.00
  0.43309E+00  0.68414E+02    0.22500E+00  0.22500E+00 -0.45000E+00  0.00000E+00  0.00000E+00  0.00000E+00    0.18729E+02  0.24734E+02 -0.43463E+02  0.39567E+00 -0.25446E+01  0.11301E+02      982.00
  0.45691E+00  0.68612E+02    0.23750E+00  0.23750E+00 -0.47500E+00  0.00000E+00  0.00000E+00  0.00000E+00    0.18793E+02  0.24774E+02 -0.43567E+02  0.36538E+00 -0.24997E+01  0.11414E+02      982.00
  0.48073E+00  0.68790E+02    0.25000E+00  0.25000E+00 -0.50000E+00  0.00000E+00  0.00000E+00  0.00000E+00    0.18857E+02  0.24802E+02 -0.43659E+02  0.33975E+00 -0.24567E+01  0.11522E+02      982.00
  0.50453E+00  0.68970E+02    0.26250E+00  0.26250E+00 -0.52500E+00  0.00000E+00  0.00000E+00  0.00000E+00    0.18926E+02  0.24828E+02 -0.43754E+02  0.31508E+00 -0.24140E+01  0.11626E+02      982.00
  0.52832E+00  0.69135E+02    0.27500E+00  0.27500E+00 -0.55000E+00  0.00000E+00  0.00000E+00  0.00000E+00    0.18993E+02  0.24849E+02 -0.43842E+02  0.29390E+00 -0.23739E+01  0.11718E+02      982.00
  0.55210E+00  0.69285E+02    0.28750E+00  0.28750E+00 -0.57500E+00  0.00000E+00  0.00000E+00  0.00000E+00    0.19058E+02  0.24864E+02 -0.43923E+02  0.27554E+00 -0.23362E+01  0.11800E+02      982.00
  0.57587E+00  0.69421E+02    0.30000E+00  0.30000E+00 -0.60000E+00  0.00000E+00  0.00000E+00  0.00000E+00    0.19122E+02  0.24876E+02 -0.43998E+02  0.25945E+00 -0.23005E+01  0.11873E+02      982.00
  0.59964E+00  0.69542E+02    0.31250E+00  0.31250E+00 -0.62500E+00  0.00000E+00  0.00000E+00  0.00000E+00    0.19189E+02  0.24875E+02 -0.44064E+02  0.24474E+00 -0.22647E+01  0.11937E+02      982.00
  0.62340E+00  0.69655E+02    0.32500E+00  0.32500E+00 -0.65000E+00  0.00000E+00  0.00000E+00  0.00000E+00    0.19250E+02  0.24879E+02 -0.44129E+02  0.23165E+00 -0.22319E+01  0.11992E+02      982.00
  0.64716E+00  0.69757E+02    0.33750E+00  0.33750E+00 -0.67500E+00  0.00000E+00  0.00000E+00  0.00000E+00    0.19306E+02  0.24882E+02 -0.44188E+02  0.21974E+00 -0.22000E+01  0.12039E+02      982.00
  0.67091E+00  0.69841E+02    0.35000E+00  0.35000E+00 -0.70000E+00  0.00000E+00  0.00000E+00  0.00000E+00    0.19358E+02  0.24880E+02 -0.44237E+02  0.21009E+00 -0.21744E+01  0.12076E+02      982.00
  0.69466E+00  0.69927E+02    0.36250E+00  0.36250E+00 -0.72500E+00  0.00000E+00  0.00000E+00  0.00000E+00    0.19409E+02  0.24880E+02 -0.44289E+02  0.19914E+00 -0.21437E+01  0.12110E+02      982.00
  0.71841E+00  0.69988E+02    0.37500E+00  0.37500E+00 -0.75000E+00  0.00000E+00  0.00000E+00  0.00000E+00    0.19462E+02  0.24866E+02 -0.44328E+02  0.18791E+00 -0.21103E+01  0.12136E+02      982.00
  0.74216E+00  0.70062E+02    0.38750E+00  0.38750E+00 -0.77500E+00  0.00000E+00  0.00000E+00  0.00000E+00    0.19510E+02  0.24864E+02 -0.44375E+02  0.17724E+00 -0.20796E+01  0.12160E+02      982.00
  0.76592E+00  0.70127E+02    0.40000E+00  0.40000E+00 -0.80000E+00  0.00000E+00  0.00000E+00  0.00000E+00    0.19554E+02  0.24863E+02 -0.44417E+02  0.16637E+00 -0.20486E+01  0.12179E+02      982.00
  0.78967E+00  0.70186E+02    0.41250E+00  0.41250E+00 -0.82500E+00  0.00000E+00  0.00000E+00  0.00000E+00    0.19595E+02  0.24862E+02 -0.44457E+02  0.15509E+00 -0.20172E+01  0.12193E+02      982.00
  0.81342E+00  0.70241E+02    0.42500E+00  0.42500E+00 -0.85000E+00  0.00000E+00  0.00000E+00  0.00000E+00    0.19646E+02  0.24852E+02 -0.44498E+02  0.13871E+00 -0.19719E+01  0.12200E+02      982.00
  0.83718E+00  0.70289E+02    0.43750E+00  0.43750E+00 -0.87500E+00  0.00000E+00  0.00000E+00  0.00000E+00    0.19685E+02  0.24849E+02 -0.44534E+02  0.12615E+00 -0.19374E+01  0.12206E+02      982.00
  0.86094E+00  0.70345E+02    0.45000E+00  0.45000E+00 -0.90000E+00  0.00000E+00  0.00000E+00  0.00000E+00    0.19714E+02  0.24858E+02 -0.44572E+02  0.11325E+00 -0.19075E+01  0.12214E+02      982.00
  0.88470E+00  0.70385E+02    0.46250E+00  0.46250E+00 -0.92500E+00  0.00000E+00  0.00000E+00  0.00000E+00    0.19747E+02  0.24857E+02 -0.44604E+02  0.98217E-01 -0.18722E+01  0.12214E+02      982.00
  0.90846E+00  0.70422E+02    0.47500E+00  0.47500E+00 -0.95000E+00  0.00000E+00  0.00000E+00  0.00000E+00    0.19779E+02  0.24855E+02 -0.44634E+02  0.82199E-01 -0.18355E+01  0.12211E+02      982.00
  0.93223E+00  0.70413E+02    0.48750E+00  0.48750E+00 -0.97500E+00  0.00000E+00  0.00000E+00  0.00000E+00    0.19796E+02  0.24842E+02 -0.44638E+02  0.69546E-01 -0.17919E+01  0.12193E+02      982.00
  0.95600E+00  0.70403E+02    0.50000E+00  0.50000E+00 -0.10000E+01  0.00000E+00  0.00000E+00  0.00000E+00    0.19814E+02  0.24828E+02 -0.44642E+02  0.52420E-01 -0.17489E+01  0.12173E+02      982.00
