          Evm          Svm            E11          E22          E33          E23          E13          E12         SDEV11       SDEV22       SDEV33       SDEV23       SDEV13       SDEV12      TEMP
  0.00000E+00  0.56876E+02    0.00000E+00  0.00000E+00  0.00000E+00  0.00000E+00  0.00000E+00  0.00000E+00    0.15640E+02  0.17733E+02 -0.33374E+02 -0.46662E+01  0.11450E+01  0.14791E+02      982.00
  0.22004E-01  0.56772E+02    0.12500E-01  0.12500E-01 -0.25000E-01  0.00000E+00  0.00000E+00  0.00000E+00    0.15756E+02  0.17617E+02 -0.33372E+02 -0.43596E+01  0.13475E+01  0.14744E+02      982.00
  0.44048E-01  0.56830E+02    0.25000E-01  0.25000E-01 -0.50000E-01  0.00000E+00  0.00000E+00  0.00000E+00    0.15865E+02  0.17566E+02 -0.33431E+02 -0.41117E+01  0.14870E+01  0.14782E+02      982.00
  0.66107E-01  0.57026E+02    0.37500E-01  0.37500E-01 -0.75000E-01  0.00000E+00  0.00000E+00  0.00000E+00    0.15973E+02  0.17570E+02 -0.33544E+02 -0.38941E+01  0.15890E+01  0.14892E+02      982.00
  0.88165E-01  0.57332E+02    0.50000E-01  0.50000E-01 -0.10000E+00  0.00000E+00  0.00000E+00  0.00000E+00    0.16086E+02  0.17614E+02 -0.33699E+02 -0.36941E+01  0.16685E+01  0.15064E+02      982.00
  0.11021E+00  0.57711E+02    0.62500E-01  0.62500E-01 -0.12500E+00  0.00000E+00  0.00000E+00  0.00000E+00    0.16198E+02  0.17686E+02 -0.33884E+02 -0.35121E+01  0.17277E+01  0.15272E+02      982.00
  0.13222E+00  0.58137E+02    0.75000E-01  0.75000E-01 -0.15000E+00  0.00000E+00  0.00000E+00  0.00000E+00    0.16308E+02  0.17780E+02 -0.34087E+02 -0.33552E+01  0.17643E+01  0.15500E+02      982.00
  0.15421E+00  0.58586E+02    0.87500E-01  0.87500E-01 -0.17500E+00  0.00000E+00  0.00000E+00  0.00000E+00    0.16418E+02  0.17884E+02 -0.34302E+02 -0.32067E+01  0.17923E+01  0.15736E+02      982.00
  0.17617E+00  0.59061E+02    0.10000E+00  0.10000E+00 -0.20000E+00  0.00000E+00  0.00000E+00  0.00000E+00    0.16529E+02  0.17997E+02 -0.34527E+02 -0.30878E+01  0.18067E+01  0.15979E+02      982.00
  0.19809E+00  0.59539E+02    0.11250E+00  0.11250E+00 -0.22500E+00  0.00000E+00  0.00000E+00  0.00000E+00    0.16642E+02  0.18112E+02 -0.34754E+02 -0.29858E+01  0.18144E+01  0.16217E+02      982.00
  0.21998E+00  0.60008E+02    0.12500E+00  0.12500E+00 -0.25000E+00  0.00000E+00  0.00000E+00  0.00000E+00    0.16754E+02  0.18225E+02 -0.34980E+02 -0.28987E+01  0.18177E+01  0.16444E+02      982.00
  0.24184E+00  0.60447E+02    0.13750E+00  0.13750E+00 -0.27500E+00  0.00000E+00  0.00000E+00  0.00000E+00    0.16864E+02  0.18330E+02 -0.35193E+02 -0.28125E+01  0.18185E+01  0.16651E+02      982.00
  0.26367E+00  0.60878E+02    0.15000E+00  0.15000E+00 -0.30000E+00  0.00000E+00  0.00000E+00  0.00000E+00    0.16976E+02  0.18430E+02 -0.35406E+02 -0.27505E+01  0.18168E+01  0.16845E+02      982.00
  0.28548E+00  0.61282E+02    0.16250E+00  0.16250E+00 -0.32500E+00  0.00000E+00  0.00000E+00  0.00000E+00    0.17087E+02  0.18523E+02 -0.35610E+02 -0.26976E+01  0.18136E+01  0.17020E+02      982.00
  0.30727E+00  0.61654E+02    0.17500E+00  0.17500E+00 -0.35000E+00  0.00000E+00  0.00000E+00  0.00000E+00    0.17196E+02  0.18603E+02 -0.35799E+02 -0.26414E+01  0.18088E+01  0.17181E+02      982.00
  0.32905E+00  0.62003E+02    0.18750E+00  0.18750E+00 -0.37500E+00  0.00000E+00  0.00000E+00  0.00000E+00    0.17304E+02  0.18677E+02 -0.35981E+02 -0.26033E+01  0.18046E+01  0.17319E+02      982.00
  0.35081E+00  0.62333E+02    0.20000E+00  0.20000E+00 -0.40000E+00  0.00000E+00  0.00000E+00  0.00000E+00    0.17415E+02  0.18739E+02 -0.36153E+02 -0.25589E+01  0.17981E+01  0.17453E+02      982.00
  0.37256E+00  0.62625E+02    0.21250E+00  0.21250E+00 -0.42500E+00  0.00000E+00  0.00000E+00  0.00000E+00    0.17519E+02  0.18794E+02 -0.36313E+02 -0.25302E+01  0.17933E+01  0.17558E+02      982.00
  0.39430E+00  0.62892E+02    0.22500E+00  0.22500E+00 -0.45000E+00  0.00000E+00  0.00000E+00  0.00000E+00    0.17621E+02  0.18841E+02 -0.36462E+02 -0.25052E+01  0.17879E+01  0.17650E+02      982.00
  0.41604E+00  0.63135E+02    0.23750E+00  0.23750E+00 -0.47500E+00  0.00000E+00  0.00000E+00  0.00000E+00    0.17719E+02  0.18881E+02 -0.36600E+02 -0.24817E+01  0.17821E+01  0.17730E+02      982.00
  0.43778E+00  0.63359E+02    0.25000E+00  0.25000E+00 -0.50000E+00  0.00000E+00  0.00000E+00  0.00000E+00    0.17815E+02  0.18914E+02 -0.36729E+02 -0.24611E+01  0.17764E+01  0.17800E+02      982.00
  0.45952E+00  0.63564E+02    0.26250E+00  0.26250E+00 -0.52500E+00  0.00000E+00  0.00000E+00  0.00000E+00    0.17908E+02  0.18941E+02 -0.36850E+02 -0.24421E+01  0.17706E+01  0.17860E+02      982.00
  0.48126E+00  0.63751E+02    0.27500E+00  0.27500E+00 -0.55000E+00  0.00000E+00  0.00000E+00  0.00000E+00    0.17999E+02  0.18963E+02 -0.36962E+02 -0.24244E+01  0.17648E+01  0.17913E+02      982.00
  0.50300E+00  0.63893E+02    0.28750E+00  0.28750E+00 -0.57500E+00  0.00000E+00  0.00000E+00  0.00000E+00    0.18075E+02  0.18974E+02 -0.37049E+02 -0.24097E+01  0.17596E+01  0.17950E+02      982.00
  0.52475E+00  0.64068E+02    0.30000E+00  0.30000E+00 -0.60000E+00  0.00000E+00  0.00000E+00  0.00000E+00    0.18175E+02  0.18979E+02 -0.37154E+02 -0.23884E+01  0.17524E+01  0.18000E+02      982.00
  0.54649E+00  0.64212E+02    0.31250E+00  0.31250E+00 -0.62500E+00  0.00000E+00  0.00000E+00  0.00000E+00    0.18259E+02  0.18985E+02 -0.37245E+02 -0.23730E+01  0.17468E+01  0.18034E+02      982.00
  0.56825E+00  0.64344E+02    0.32500E+00  0.32500E+00 -0.65000E+00  0.00000E+00  0.00000E+00  0.00000E+00    0.18339E+02  0.18990E+02 -0.37329E+02 -0.23592E+01  0.17410E+01  0.18063E+02      982.00
  0.59000E+00  0.64465E+02    0.33750E+00  0.33750E+00 -0.67500E+00  0.00000E+00  0.00000E+00  0.00000E+00    0.18416E+02  0.18991E+02 -0.37407E+02 -0.23461E+01  0.17352E+01  0.18088E+02      982.00
  0.61176E+00  0.64577E+02    0.35000E+00  0.35000E+00 -0.70000E+00  0.00000E+00  0.00000E+00  0.00000E+00    0.18491E+02  0.18990E+02 -0.37480E+02 -0.23338E+01  0.17296E+01  0.18110E+02      982.00
  0.63353E+00  0.64679E+02    0.36250E+00  0.36250E+00 -0.72500E+00  0.00000E+00  0.00000E+00  0.00000E+00    0.18563E+02  0.18986E+02 -0.37548E+02 -0.23221E+01  0.17240E+01  0.18129E+02      982.00
  0.65530E+00  0.64774E+02    0.37500E+00  0.37500E+00 -0.75000E+00  0.00000E+00  0.00000E+00  0.00000E+00    0.18632E+02  0.18980E+02 -0.37612E+02 -0.23110E+01  0.17186E+01  0.18145E+02      982.00
  0.67707E+00  0.64862E+02    0.38750E+00  0.38750E+00 -0.77500E+00  0.00000E+00  0.00000E+00  0.00000E+00    0.18699E+02  0.18972E+02 -0.37671E+02 -0.23005E+01  0.17134E+01  0.18160E+02      982.00
  0.69885E+00  0.64943E+02    0.40000E+00  0.40000E+00 -0.80000E+00  0.00000E+00  0.00000E+00  0.00000E+00    0.18763E+02  0.18963E+02 -0.37726E+02 -0.22906E+01  0.17084E+01  0.18172E+02      982.00
  0.72063E+00  0.65018E+02    0.41250E+00  0.41250E+00 -0.82500E+00  0.00000E+00  0.00000E+00  0.00000E+00    0.18825E+02  0.18952E+02 -0.37778E+02 -0.22812E+01  0.17036E+01  0.18183E+02      982.00
  0.74242E+00  0.65087E+02    0.42500E+00  0.42500E+00 -0.85000E+00  0.00000E+00  0.00000E+00  0.00000E+00    0.18885E+02  0.18940E+02 -0.37826E+02 -0.22724E+01  0.16990E+01  0.18193E+02      982.00
  0.76422E+00  0.65152E+02    0.43750E+00  0.43750E+00 -0.87500E+00  0.00000E+00  0.00000E+00  0.00000E+00    0.18943E+02  0.18927E+02 -0.37871E+02 -0.22641E+01  0.16947E+01  0.18201E+02      982.00
  0.78601E+00  0.65200E+02    0.45000E+00  0.45000E+00 -0.90000E+00  0.00000E+00  0.00000E+00  0.00000E+00    0.19008E+02  0.18896E+02 -0.37904E+02 -0.22539E+01  0.16908E+01  0.18208E+02      982.00
  0.80782E+00  0.65259E+02    0.46250E+00  0.46250E+00 -0.92500E+00  0.00000E+00  0.00000E+00  0.00000E+00    0.19063E+02  0.18883E+02 -0.37946E+02 -0.22456E+01  0.16873E+01  0.18215E+02      982.00
  0.82962E+00  0.65311E+02    0.47500E+00  0.47500E+00 -0.95000E+00  0.00000E+00  0.00000E+00  0.00000E+00    0.19115E+02  0.18868E+02 -0.37983E+02 -0.22385E+01  0.16838E+01  0.18220E+02      982.00
  0.85143E+00  0.65360E+02    0.48750E+00  0.48750E+00 -0.97500E+00  0.00000E+00  0.00000E+00  0.00000E+00    0.19165E+02  0.18852E+02 -0.38017E+02 -0.22320E+01  0.16803E+01  0.18225E+02      982.00
  0.87324E+00  0.65378E+02    0.50000E+00  0.50000E+00 -0.10000E+01  0.00000E+00  0.00000E+00  0.00000E+00    0.19204E+02  0.18831E+02 -0.38035E+02 -0.22140E+01  0.16705E+01  0.18222E+02      982.00
