          Evm          Svm            E11          E22          E33          E23          E13          E12         SDEV11       SDEV22       SDEV33       SDEV23       SDEV13       SDEV12      TEMP
  0.00000E+00  0.63853E+02    0.00000E+00  0.00000E+00  0.00000E+00  0.00000E+00  0.00000E+00  0.00000E+00    0.19471E+02  0.21703E+02 -0.41174E+02 -0.32112E+01  0.31562E+01  0.81298E+01      982.00
  0.24181E-01  0.63888E+02    0.12500E-01  0.12500E-01 -0.25000E-01  0.00000E+00  0.00000E+00  0.00000E+00    0.18862E+02  0.22341E+02 -0.41203E+02 -0.30410E+01  0.29146E+01  0.81560E+01      982.00
  0.48365E-01  0.63928E+02    0.25000E-01  0.25000E-01 -0.50000E-01  0.00000E+00  0.00000E+00  0.00000E+00    0.18397E+02  0.22831E+02 -0.41228E+02 -0.30332E+01  0.26280E+01  0.81500E+01      982.00
  0.72550E-01  0.63997E+02    0.37500E-01  0.37500E-01 -0.75000E-01  0.00000E+00  0.00000E+00  0.00000E+00    0.18014E+02  0.23248E+02 -0.41262E+02 -0.30985E+01  0.23516E+01  0.81448E+01      982.00
  0.96728E-01  0.64100E+02    0.50000E-01  0.50000E-01 -0.10000E+00  0.00000E+00  0.00000E+00  0.00000E+00    0.17703E+02  0.23605E+02 -0.41308E+02 -0.31927E+01  0.21078E+01  0.81543E+01      982.00
  0.12089E+00  0.64235E+02    0.62500E-01  0.62500E-01 -0.12500E+00  0.00000E+00  0.00000E+00  0.00000E+00    0.17444E+02  0.23924E+02 -0.41368E+02 -0.32912E+01  0.19031E+01  0.81830E+01      982.00
  0.14504E+00  0.64406E+02    0.75000E-01  0.75000E-01 -0.15000E+00  0.00000E+00  0.00000E+00  0.00000E+00    0.17241E+02  0.24203E+02 -0.41444E+02 -0.33869E+01  0.17351E+01  0.82417E+01      982.00
  0.16917E+00  0.64613E+02    0.87500E-01  0.87500E-01 -0.17500E+00  0.00000E+00  0.00000E+00  0.00000E+00    0.17078E+02  0.24459E+02 -0.41538E+02 -0.34757E+01  0.16010E+01  0.83253E+01      982.00
  0.19328E+00  0.64839E+02    0.10000E+00  0.10000E+00 -0.20000E+00  0.00000E+00  0.00000E+00  0.00000E+00    0.16940E+02  0.24701E+02 -0.41641E+02 -0.35535E+01  0.14969E+01  0.84238E+01      982.00
  0.21737E+00  0.65103E+02    0.11250E+00  0.11250E+00 -0.22500E+00  0.00000E+00  0.00000E+00  0.00000E+00    0.16841E+02  0.24923E+02 -0.41764E+02 -0.36284E+01  0.14176E+01  0.85496E+01      982.00
  0.24142E+00  0.65371E+02    0.12500E+00  0.12500E+00 -0.25000E+00  0.00000E+00  0.00000E+00  0.00000E+00    0.16756E+02  0.25133E+02 -0.41889E+02 -0.36914E+01  0.13589E+01  0.86835E+01      982.00
  0.26545E+00  0.65662E+02    0.13750E+00  0.13750E+00 -0.27500E+00  0.00000E+00  0.00000E+00  0.00000E+00    0.16702E+02  0.25325E+02 -0.42027E+02 -0.37516E+01  0.13187E+01  0.88339E+01      982.00
  0.28945E+00  0.65957E+02    0.15000E+00  0.15000E+00 -0.30000E+00  0.00000E+00  0.00000E+00  0.00000E+00    0.16665E+02  0.25502E+02 -0.42167E+02 -0.38042E+01  0.12935E+01  0.89917E+01      982.00
  0.31343E+00  0.66241E+02    0.16250E+00  0.16250E+00 -0.32500E+00  0.00000E+00  0.00000E+00  0.00000E+00    0.16635E+02  0.25666E+02 -0.42301E+02 -0.38441E+01  0.12797E+01  0.91539E+01      982.00
  0.33738E+00  0.66532E+02    0.17500E+00  0.17500E+00 -0.35000E+00  0.00000E+00  0.00000E+00  0.00000E+00    0.16619E+02  0.25818E+02 -0.42437E+02 -0.38761E+01  0.12768E+01  0.93286E+01      982.00
  0.36129E+00  0.66786E+02    0.18750E+00  0.18750E+00 -0.37500E+00  0.00000E+00  0.00000E+00  0.00000E+00    0.16629E+02  0.25931E+02 -0.42559E+02 -0.39022E+01  0.12858E+01  0.94754E+01      982.00
  0.38519E+00  0.67029E+02    0.20000E+00  0.20000E+00 -0.40000E+00  0.00000E+00  0.00000E+00  0.00000E+00    0.16634E+02  0.26037E+02 -0.42671E+02 -0.39114E+01  0.13003E+01  0.96400E+01      982.00
  0.40906E+00  0.67280E+02    0.21250E+00  0.21250E+00 -0.42500E+00  0.00000E+00  0.00000E+00  0.00000E+00    0.16651E+02  0.26134E+02 -0.42786E+02 -0.39107E+01  0.13239E+01  0.98168E+01      982.00
  0.43291E+00  0.67500E+02    0.22500E+00  0.22500E+00 -0.45000E+00  0.00000E+00  0.00000E+00  0.00000E+00    0.16684E+02  0.26204E+02 -0.42888E+02 -0.39020E+01  0.13532E+01  0.99746E+01      982.00
  0.45674E+00  0.67694E+02    0.23750E+00  0.23750E+00 -0.47500E+00  0.00000E+00  0.00000E+00  0.00000E+00    0.16725E+02  0.26254E+02 -0.42979E+02 -0.38903E+01  0.13861E+01  0.10115E+02      982.00
  0.48055E+00  0.67868E+02    0.25000E+00  0.25000E+00 -0.50000E+00  0.00000E+00  0.00000E+00  0.00000E+00    0.16773E+02  0.26286E+02 -0.43059E+02 -0.38651E+01  0.14217E+01  0.10256E+02      982.00
  0.50434E+00  0.68036E+02    0.26250E+00  0.26250E+00 -0.52500E+00  0.00000E+00  0.00000E+00  0.00000E+00    0.16825E+02  0.26311E+02 -0.43136E+02 -0.38299E+01  0.14613E+01  0.10400E+02      982.00
  0.52812E+00  0.68206E+02    0.27500E+00  0.27500E+00 -0.55000E+00  0.00000E+00  0.00000E+00  0.00000E+00    0.16877E+02  0.26335E+02 -0.43213E+02 -0.37938E+01  0.15043E+01  0.10543E+02      982.00
  0.55187E+00  0.68326E+02    0.28750E+00  0.28750E+00 -0.57500E+00  0.00000E+00  0.00000E+00  0.00000E+00    0.16943E+02  0.26324E+02 -0.43267E+02 -0.37392E+01  0.15446E+01  0.10667E+02      982.00
  0.57562E+00  0.68453E+02    0.30000E+00  0.30000E+00 -0.60000E+00  0.00000E+00  0.00000E+00  0.00000E+00    0.17010E+02  0.26314E+02 -0.43324E+02 -0.36875E+01  0.15864E+01  0.10790E+02      982.00
  0.59935E+00  0.68567E+02    0.31250E+00  0.31250E+00 -0.62500E+00  0.00000E+00  0.00000E+00  0.00000E+00    0.17079E+02  0.26298E+02 -0.43377E+02 -0.36329E+01  0.16272E+01  0.10904E+02      982.00
  0.62308E+00  0.68669E+02    0.32500E+00  0.32500E+00 -0.65000E+00  0.00000E+00  0.00000E+00  0.00000E+00    0.17149E+02  0.26275E+02 -0.43424E+02 -0.35761E+01  0.16659E+01  0.11009E+02      982.00
  0.64679E+00  0.68765E+02    0.33750E+00  0.33750E+00 -0.67500E+00  0.00000E+00  0.00000E+00  0.00000E+00    0.17221E+02  0.26248E+02 -0.43469E+02 -0.35197E+01  0.17033E+01  0.11107E+02      982.00
  0.67050E+00  0.68852E+02    0.35000E+00  0.35000E+00 -0.70000E+00  0.00000E+00  0.00000E+00  0.00000E+00    0.17293E+02  0.26218E+02 -0.43511E+02 -0.34638E+01  0.17385E+01  0.11197E+02      982.00
  0.69419E+00  0.68921E+02    0.36250E+00  0.36250E+00 -0.72500E+00  0.00000E+00  0.00000E+00  0.00000E+00    0.17372E+02  0.26173E+02 -0.43544E+02 -0.34002E+01  0.17736E+01  0.11280E+02      982.00
  0.71789E+00  0.68997E+02    0.37500E+00  0.37500E+00 -0.75000E+00  0.00000E+00  0.00000E+00  0.00000E+00    0.17442E+02  0.26140E+02 -0.43582E+02 -0.33469E+01  0.18046E+01  0.11356E+02      982.00
  0.74157E+00  0.69066E+02    0.38750E+00  0.38750E+00 -0.77500E+00  0.00000E+00  0.00000E+00  0.00000E+00    0.17511E+02  0.26107E+02 -0.43618E+02 -0.32954E+01  0.18330E+01  0.11424E+02      982.00
  0.76526E+00  0.69130E+02    0.40000E+00  0.40000E+00 -0.80000E+00  0.00000E+00  0.00000E+00  0.00000E+00    0.17578E+02  0.26073E+02 -0.43651E+02 -0.32458E+01  0.18593E+01  0.11485E+02      982.00
  0.78893E+00  0.69189E+02    0.41250E+00  0.41250E+00 -0.82500E+00  0.00000E+00  0.00000E+00  0.00000E+00    0.17642E+02  0.26041E+02 -0.43683E+02 -0.31983E+01  0.18836E+01  0.11540E+02      982.00
  0.81261E+00  0.69244E+02    0.42500E+00  0.42500E+00 -0.85000E+00  0.00000E+00  0.00000E+00  0.00000E+00    0.17705E+02  0.26008E+02 -0.43713E+02 -0.31528E+01  0.19061E+01  0.11589E+02      982.00
  0.83628E+00  0.69295E+02    0.43750E+00  0.43750E+00 -0.87500E+00  0.00000E+00  0.00000E+00  0.00000E+00    0.17765E+02  0.25977E+02 -0.43742E+02 -0.31094E+01  0.19268E+01  0.11634E+02      982.00
  0.85996E+00  0.69342E+02    0.45000E+00  0.45000E+00 -0.90000E+00  0.00000E+00  0.00000E+00  0.00000E+00    0.17822E+02  0.25947E+02 -0.43769E+02 -0.30680E+01  0.19461E+01  0.11673E+02      982.00
  0.88363E+00  0.69385E+02    0.46250E+00  0.46250E+00 -0.92500E+00  0.00000E+00  0.00000E+00  0.00000E+00    0.17877E+02  0.25918E+02 -0.43795E+02 -0.30284E+01  0.19639E+01  0.11708E+02      982.00
  0.90730E+00  0.69426E+02    0.47500E+00  0.47500E+00 -0.95000E+00  0.00000E+00  0.00000E+00  0.00000E+00    0.17930E+02  0.25890E+02 -0.43819E+02 -0.29908E+01  0.19806E+01  0.11740E+02      982.00
  0.93096E+00  0.69463E+02    0.48750E+00  0.48750E+00 -0.97500E+00  0.00000E+00  0.00000E+00  0.00000E+00    0.17979E+02  0.25863E+02 -0.43843E+02 -0.29549E+01  0.19962E+01  0.11768E+02      982.00
  0.95463E+00  0.69463E+02    0.50000E+00  0.50000E+00 -0.10000E+01  0.00000E+00  0.00000E+00  0.00000E+00    0.18014E+02  0.25829E+02 -0.43843E+02 -0.29084E+01  0.20026E+01  0.11789E+02      982.00
