          Evm          Svm            E11          E22          E33          E23          E13          E12         SDEV11       SDEV22       SDEV33       SDEV23       SDEV13       SDEV12      TEMP
  0.00000E+00  0.57426E+02    0.00000E+00  0.00000E+00  0.00000E+00  0.00000E+00  0.00000E+00  0.00000E+00    0.15839E+02  0.16864E+02 -0.32702E+02 -0.21001E+01  0.10369E+01  0.17071E+02      982.00
  0.21355E-01  0.57381E+02    0.12500E-01  0.12500E-01 -0.25000E-01  0.00000E+00  0.00000E+00  0.00000E+00    0.15890E+02  0.16855E+02 -0.32746E+02 -0.23400E+01  0.13493E+01  0.16906E+02      982.00
  0.42755E-01  0.57444E+02    0.25000E-01  0.25000E-01 -0.50000E-01  0.00000E+00  0.00000E+00  0.00000E+00    0.15965E+02  0.16869E+02 -0.32834E+02 -0.25139E+01  0.15833E+01  0.16803E+02      982.00
  0.64190E-01  0.57586E+02    0.37500E-01  0.37500E-01 -0.75000E-01  0.00000E+00  0.00000E+00  0.00000E+00    0.16044E+02  0.16912E+02 -0.32956E+02 -0.26286E+01  0.17347E+01  0.16754E+02      982.00
  0.85650E-01  0.57800E+02    0.50000E-01  0.50000E-01 -0.10000E+00  0.00000E+00  0.00000E+00  0.00000E+00    0.16133E+02  0.16976E+02 -0.33109E+02 -0.27075E+01  0.18427E+01  0.16751E+02      982.00
  0.10713E+00  0.58075E+02    0.62500E-01  0.62500E-01 -0.12500E+00  0.00000E+00  0.00000E+00  0.00000E+00    0.16227E+02  0.17057E+02 -0.33285E+02 -0.27563E+01  0.19116E+01  0.16790E+02      982.00
  0.12862E+00  0.58416E+02    0.75000E-01  0.75000E-01 -0.15000E+00  0.00000E+00  0.00000E+00  0.00000E+00    0.16327E+02  0.17156E+02 -0.33484E+02 -0.27842E+01  0.19502E+01  0.16878E+02      982.00
  0.15012E+00  0.58809E+02    0.87500E-01  0.87500E-01 -0.17500E+00  0.00000E+00  0.00000E+00  0.00000E+00    0.16427E+02  0.17261E+02 -0.33688E+02 -0.27989E+01  0.19822E+01  0.17022E+02      982.00
  0.17160E+00  0.59241E+02    0.10000E+00  0.10000E+00 -0.20000E+00  0.00000E+00  0.00000E+00  0.00000E+00    0.16542E+02  0.17383E+02 -0.33925E+02 -0.27952E+01  0.19886E+01  0.17168E+02      982.00
  0.19307E+00  0.59620E+02    0.11250E+00  0.11250E+00 -0.22500E+00  0.00000E+00  0.00000E+00  0.00000E+00    0.16652E+02  0.17501E+02 -0.34153E+02 -0.28004E+01  0.19899E+01  0.17263E+02      982.00
  0.21456E+00  0.60044E+02    0.12500E+00  0.12500E+00 -0.25000E+00  0.00000E+00  0.00000E+00  0.00000E+00    0.16763E+02  0.17620E+02 -0.34383E+02 -0.27916E+01  0.19878E+01  0.17412E+02      982.00
  0.23603E+00  0.60463E+02    0.13750E+00  0.13750E+00 -0.27500E+00  0.00000E+00  0.00000E+00  0.00000E+00    0.16877E+02  0.17739E+02 -0.34616E+02 -0.27845E+01  0.19885E+01  0.17550E+02      982.00
  0.25750E+00  0.60894E+02    0.15000E+00  0.15000E+00 -0.30000E+00  0.00000E+00  0.00000E+00  0.00000E+00    0.16994E+02  0.17858E+02 -0.34852E+02 -0.27701E+01  0.19865E+01  0.17699E+02      982.00
  0.27896E+00  0.61277E+02    0.16250E+00  0.16250E+00 -0.32500E+00  0.00000E+00  0.00000E+00  0.00000E+00    0.17106E+02  0.17966E+02 -0.35073E+02 -0.27578E+01  0.19856E+01  0.17813E+02      982.00
  0.30043E+00  0.61636E+02    0.17500E+00  0.17500E+00 -0.35000E+00  0.00000E+00  0.00000E+00  0.00000E+00    0.17217E+02  0.18068E+02 -0.35285E+02 -0.27452E+01  0.19851E+01  0.17914E+02      982.00
  0.32189E+00  0.61971E+02    0.18750E+00  0.18750E+00 -0.37500E+00  0.00000E+00  0.00000E+00  0.00000E+00    0.17324E+02  0.18163E+02 -0.35487E+02 -0.27313E+01  0.19841E+01  0.18002E+02      982.00
  0.34337E+00  0.62282E+02    0.20000E+00  0.20000E+00 -0.40000E+00  0.00000E+00  0.00000E+00  0.00000E+00    0.17428E+02  0.18250E+02 -0.35678E+02 -0.27160E+01  0.19823E+01  0.18078E+02      982.00
  0.36485E+00  0.62568E+02    0.21250E+00  0.21250E+00 -0.42500E+00  0.00000E+00  0.00000E+00  0.00000E+00    0.17529E+02  0.18330E+02 -0.35860E+02 -0.26995E+01  0.19797E+01  0.18142E+02      982.00
  0.38634E+00  0.62832E+02    0.22500E+00  0.22500E+00 -0.45000E+00  0.00000E+00  0.00000E+00  0.00000E+00    0.17627E+02  0.18404E+02 -0.36031E+02 -0.26818E+01  0.19761E+01  0.18195E+02      982.00
  0.40785E+00  0.63080E+02    0.23750E+00  0.23750E+00 -0.47500E+00  0.00000E+00  0.00000E+00  0.00000E+00    0.17721E+02  0.18472E+02 -0.36193E+02 -0.26635E+01  0.19712E+01  0.18243E+02      982.00
  0.42936E+00  0.63302E+02    0.25000E+00  0.25000E+00 -0.50000E+00  0.00000E+00  0.00000E+00  0.00000E+00    0.17811E+02  0.18532E+02 -0.36343E+02 -0.26440E+01  0.19657E+01  0.18279E+02      982.00
  0.45089E+00  0.63506E+02    0.26250E+00  0.26250E+00 -0.52500E+00  0.00000E+00  0.00000E+00  0.00000E+00    0.17898E+02  0.18587E+02 -0.36484E+02 -0.26239E+01  0.19594E+01  0.18307E+02      982.00
  0.47243E+00  0.63693E+02    0.27500E+00  0.27500E+00 -0.55000E+00  0.00000E+00  0.00000E+00  0.00000E+00    0.17981E+02  0.18635E+02 -0.36616E+02 -0.26033E+01  0.19523E+01  0.18330E+02      982.00
  0.49399E+00  0.63864E+02    0.28750E+00  0.28750E+00 -0.57500E+00  0.00000E+00  0.00000E+00  0.00000E+00    0.18061E+02  0.18679E+02 -0.36740E+02 -0.25824E+01  0.19446E+01  0.18348E+02      982.00
  0.51557E+00  0.64022E+02    0.30000E+00  0.30000E+00 -0.60000E+00  0.00000E+00  0.00000E+00  0.00000E+00    0.18138E+02  0.18717E+02 -0.36855E+02 -0.25614E+01  0.19362E+01  0.18361E+02      982.00
  0.53715E+00  0.64166E+02    0.31250E+00  0.31250E+00 -0.62500E+00  0.00000E+00  0.00000E+00  0.00000E+00    0.18212E+02  0.18752E+02 -0.36963E+02 -0.25404E+01  0.19273E+01  0.18370E+02      982.00
  0.55876E+00  0.64299E+02    0.32500E+00  0.32500E+00 -0.65000E+00  0.00000E+00  0.00000E+00  0.00000E+00    0.18282E+02  0.18782E+02 -0.37064E+02 -0.25196E+01  0.19181E+01  0.18377E+02      982.00
  0.58037E+00  0.64407E+02    0.33750E+00  0.33750E+00 -0.67500E+00  0.00000E+00  0.00000E+00  0.00000E+00    0.18342E+02  0.18804E+02 -0.37147E+02 -0.25036E+01  0.19116E+01  0.18382E+02      982.00
  0.60200E+00  0.64522E+02    0.35000E+00  0.35000E+00 -0.70000E+00  0.00000E+00  0.00000E+00  0.00000E+00    0.18408E+02  0.18828E+02 -0.37236E+02 -0.24839E+01  0.19020E+01  0.18384E+02      982.00
  0.62364E+00  0.64627E+02    0.36250E+00  0.36250E+00 -0.72500E+00  0.00000E+00  0.00000E+00  0.00000E+00    0.18471E+02  0.18848E+02 -0.37319E+02 -0.24641E+01  0.18921E+01  0.18385E+02      982.00
  0.64530E+00  0.64724E+02    0.37500E+00  0.37500E+00 -0.75000E+00  0.00000E+00  0.00000E+00  0.00000E+00    0.18531E+02  0.18865E+02 -0.37396E+02 -0.24448E+01  0.18822E+01  0.18385E+02      982.00
  0.66696E+00  0.64814E+02    0.38750E+00  0.38750E+00 -0.77500E+00  0.00000E+00  0.00000E+00  0.00000E+00    0.18590E+02  0.18879E+02 -0.37469E+02 -0.24261E+01  0.18724E+01  0.18383E+02      982.00
  0.68864E+00  0.64897E+02    0.40000E+00  0.40000E+00 -0.80000E+00  0.00000E+00  0.00000E+00  0.00000E+00    0.18646E+02  0.18891E+02 -0.37536E+02 -0.24081E+01  0.18627E+01  0.18381E+02      982.00
  0.71033E+00  0.64974E+02    0.41250E+00  0.41250E+00 -0.82500E+00  0.00000E+00  0.00000E+00  0.00000E+00    0.18700E+02  0.18900E+02 -0.37599E+02 -0.23908E+01  0.18531E+01  0.18378E+02      982.00
  0.73203E+00  0.65046E+02    0.42500E+00  0.42500E+00 -0.85000E+00  0.00000E+00  0.00000E+00  0.00000E+00    0.18752E+02  0.18907E+02 -0.37659E+02 -0.23742E+01  0.18437E+01  0.18375E+02      982.00
  0.75374E+00  0.65112E+02    0.43750E+00  0.43750E+00 -0.87500E+00  0.00000E+00  0.00000E+00  0.00000E+00    0.18802E+02  0.18912E+02 -0.37714E+02 -0.23584E+01  0.18345E+01  0.18372E+02      982.00
  0.77546E+00  0.65174E+02    0.45000E+00  0.45000E+00 -0.90000E+00  0.00000E+00  0.00000E+00  0.00000E+00    0.18850E+02  0.18915E+02 -0.37766E+02 -0.23434E+01  0.18256E+01  0.18368E+02      982.00
  0.79719E+00  0.65232E+02    0.46250E+00  0.46250E+00 -0.92500E+00  0.00000E+00  0.00000E+00  0.00000E+00    0.18897E+02  0.18917E+02 -0.37814E+02 -0.23291E+01  0.18170E+01  0.18365E+02      982.00
  0.81893E+00  0.65286E+02    0.47500E+00  0.47500E+00 -0.95000E+00  0.00000E+00  0.00000E+00  0.00000E+00    0.18943E+02  0.18917E+02 -0.37859E+02 -0.23156E+01  0.18087E+01  0.18361E+02      982.00
  0.84068E+00  0.65337E+02    0.48750E+00  0.48750E+00 -0.97500E+00  0.00000E+00  0.00000E+00  0.00000E+00    0.18987E+02  0.18915E+02 -0.37902E+02 -0.23029E+01  0.18007E+01  0.18357E+02      982.00
  0.86243E+00  0.65342E+02    0.50000E+00  0.50000E+00 -0.10000E+01  0.00000E+00  0.00000E+00  0.00000E+00    0.19010E+02  0.18903E+02 -0.37913E+02 -0.22825E+01  0.17896E+01  0.18350E+02      982.00
