          Evm          Svm            E11          E22          E33          E23          E13          E12         SDEV11       SDEV22       SDEV33       SDEV23       SDEV13       SDEV12      TEMP
  0.00000E+00  0.58535E+02    0.00000E+00  0.00000E+00  0.00000E+00  0.00000E+00  0.00000E+00  0.00000E+00    0.15156E+02  0.20709E+02 -0.35864E+02 -0.56492E+01 -0.57345E+01 -0.10244E+02      982.00
  0.22976E-01  0.58684E+02    0.12500E-01  0.12500E-01 -0.25000E-01  0.00000E+00  0.00000E+00  0.00000E+00    0.15478E+02  0.20568E+02 -0.36046E+02 -0.58067E+01 -0.55441E+01 -0.10126E+02      982.00
  0.46010E-01  0.58868E+02    0.25000E-01  0.25000E-01 -0.50000E-01  0.00000E+00  0.00000E+00  0.00000E+00    0.15745E+02  0.20489E+02 -0.36235E+02 -0.59437E+01 -0.53774E+01 -0.10027E+02      982.00
  0.69092E-01  0.59081E+02    0.37500E-01  0.37500E-01 -0.75000E-01  0.00000E+00  0.00000E+00  0.00000E+00    0.15983E+02  0.20448E+02 -0.36432E+02 -0.60526E+01 -0.52317E+01 -0.99540E+01      982.00
  0.92216E-01  0.59335E+02    0.50000E-01  0.50000E-01 -0.10000E+00  0.00000E+00  0.00000E+00  0.00000E+00    0.16186E+02  0.20460E+02 -0.36646E+02 -0.61227E+01 -0.51149E+01 -0.99072E+01      982.00
  0.11538E+00  0.59618E+02    0.62500E-01  0.62500E-01 -0.12500E+00  0.00000E+00  0.00000E+00  0.00000E+00    0.16361E+02  0.20512E+02 -0.36873E+02 -0.61617E+01 -0.50114E+01 -0.98832E+01      982.00
  0.13857E+00  0.59938E+02    0.75000E-01  0.75000E-01 -0.15000E+00  0.00000E+00  0.00000E+00  0.00000E+00    0.16512E+02  0.20607E+02 -0.37119E+02 -0.61687E+01 -0.49281E+01 -0.98821E+01      982.00
  0.16179E+00  0.60288E+02    0.87500E-01  0.87500E-01 -0.17500E+00  0.00000E+00  0.00000E+00  0.00000E+00    0.16646E+02  0.20734E+02 -0.37380E+02 -0.61529E+01 -0.48571E+01 -0.98997E+01      982.00
  0.18504E+00  0.60671E+02    0.10000E+00  0.10000E+00 -0.20000E+00  0.00000E+00  0.00000E+00  0.00000E+00    0.16774E+02  0.20884E+02 -0.37658E+02 -0.61189E+01 -0.48012E+01 -0.99331E+01      982.00
  0.20832E+00  0.61070E+02    0.11250E+00  0.11250E+00 -0.22500E+00  0.00000E+00  0.00000E+00  0.00000E+00    0.16888E+02  0.21057E+02 -0.37945E+02 -0.60725E+01 -0.47493E+01 -0.99770E+01      982.00
  0.23162E+00  0.61483E+02    0.12500E+00  0.12500E+00 -0.25000E+00  0.00000E+00  0.00000E+00  0.00000E+00    0.16988E+02  0.21250E+02 -0.38238E+02 -0.60175E+01 -0.47026E+01 -0.10030E+02      982.00
  0.25494E+00  0.61913E+02    0.13750E+00  0.13750E+00 -0.27500E+00  0.00000E+00  0.00000E+00  0.00000E+00    0.17091E+02  0.21450E+02 -0.38541E+02 -0.59540E+01 -0.46666E+01 -0.10085E+02      982.00
  0.27829E+00  0.62348E+02    0.15000E+00  0.15000E+00 -0.30000E+00  0.00000E+00  0.00000E+00  0.00000E+00    0.17192E+02  0.21655E+02 -0.38847E+02 -0.58857E+01 -0.46379E+01 -0.10141E+02      982.00
  0.30165E+00  0.62795E+02    0.16250E+00  0.16250E+00 -0.32500E+00  0.00000E+00  0.00000E+00  0.00000E+00    0.17286E+02  0.21872E+02 -0.39158E+02 -0.58133E+01 -0.46144E+01 -0.10199E+02      982.00
  0.32503E+00  0.63227E+02    0.17500E+00  0.17500E+00 -0.35000E+00  0.00000E+00  0.00000E+00  0.00000E+00    0.17385E+02  0.22077E+02 -0.39462E+02 -0.57391E+01 -0.45977E+01 -0.10248E+02      982.00
  0.34844E+00  0.63646E+02    0.18750E+00  0.18750E+00 -0.37500E+00  0.00000E+00  0.00000E+00  0.00000E+00    0.17485E+02  0.22275E+02 -0.39759E+02 -0.56621E+01 -0.45843E+01 -0.10289E+02      982.00
  0.37187E+00  0.64071E+02    0.20000E+00  0.20000E+00 -0.40000E+00  0.00000E+00  0.00000E+00  0.00000E+00    0.17580E+02  0.22481E+02 -0.40061E+02 -0.55787E+01 -0.45754E+01 -0.10327E+02      982.00
  0.39531E+00  0.64464E+02    0.21250E+00  0.21250E+00 -0.42500E+00  0.00000E+00  0.00000E+00  0.00000E+00    0.17675E+02  0.22667E+02 -0.40341E+02 -0.55022E+01 -0.45706E+01 -0.10356E+02      982.00
  0.41878E+00  0.64840E+02    0.22500E+00  0.22500E+00 -0.45000E+00  0.00000E+00  0.00000E+00  0.00000E+00    0.17768E+02  0.22843E+02 -0.40611E+02 -0.54267E+01 -0.45687E+01 -0.10378E+02      982.00
  0.44227E+00  0.65197E+02    0.23750E+00  0.23750E+00 -0.47500E+00  0.00000E+00  0.00000E+00  0.00000E+00    0.17857E+02  0.23012E+02 -0.40869E+02 -0.53520E+01 -0.45685E+01 -0.10394E+02      982.00
  0.46577E+00  0.65534E+02    0.25000E+00  0.25000E+00 -0.50000E+00  0.00000E+00  0.00000E+00  0.00000E+00    0.17943E+02  0.23172E+02 -0.41114E+02 -0.52781E+01 -0.45694E+01 -0.10403E+02      982.00
  0.48930E+00  0.65852E+02    0.26250E+00  0.26250E+00 -0.52500E+00  0.00000E+00  0.00000E+00  0.00000E+00    0.18024E+02  0.23324E+02 -0.41347E+02 -0.52052E+01 -0.45710E+01 -0.10406E+02      982.00
  0.51285E+00  0.66139E+02    0.27500E+00  0.27500E+00 -0.55000E+00  0.00000E+00  0.00000E+00  0.00000E+00    0.18096E+02  0.23461E+02 -0.41557E+02 -0.51425E+01 -0.45761E+01 -0.10408E+02      982.00
  0.53641E+00  0.66419E+02    0.28750E+00  0.28750E+00 -0.57500E+00  0.00000E+00  0.00000E+00  0.00000E+00    0.18167E+02  0.23599E+02 -0.41766E+02 -0.50717E+01 -0.45781E+01 -0.10401E+02      982.00
  0.55999E+00  0.66681E+02    0.30000E+00  0.30000E+00 -0.60000E+00  0.00000E+00  0.00000E+00  0.00000E+00    0.18233E+02  0.23730E+02 -0.41963E+02 -0.50013E+01 -0.45803E+01 -0.10389E+02      982.00
  0.58359E+00  0.66925E+02    0.31250E+00  0.31250E+00 -0.62500E+00  0.00000E+00  0.00000E+00  0.00000E+00    0.18294E+02  0.23854E+02 -0.42148E+02 -0.49319E+01 -0.45827E+01 -0.10373E+02      982.00
  0.60720E+00  0.67152E+02    0.32500E+00  0.32500E+00 -0.65000E+00  0.00000E+00  0.00000E+00  0.00000E+00    0.18349E+02  0.23973E+02 -0.42322E+02 -0.48634E+01 -0.45850E+01 -0.10354E+02      982.00
  0.63084E+00  0.67364E+02    0.33750E+00  0.33750E+00 -0.67500E+00  0.00000E+00  0.00000E+00  0.00000E+00    0.18398E+02  0.24087E+02 -0.42485E+02 -0.47958E+01 -0.45874E+01 -0.10331E+02      982.00
  0.65449E+00  0.67561E+02    0.35000E+00  0.35000E+00 -0.70000E+00  0.00000E+00  0.00000E+00  0.00000E+00    0.18442E+02  0.24196E+02 -0.42639E+02 -0.47292E+01 -0.45898E+01 -0.10307E+02      982.00
  0.67816E+00  0.67743E+02    0.36250E+00  0.36250E+00 -0.72500E+00  0.00000E+00  0.00000E+00  0.00000E+00    0.18481E+02  0.24302E+02 -0.42782E+02 -0.46634E+01 -0.45923E+01 -0.10280E+02      982.00
  0.70184E+00  0.67913E+02    0.37500E+00  0.37500E+00 -0.75000E+00  0.00000E+00  0.00000E+00  0.00000E+00    0.18512E+02  0.24401E+02 -0.42914E+02 -0.46116E+01 -0.45906E+01 -0.10256E+02      982.00
  0.72554E+00  0.68071E+02    0.38750E+00  0.38750E+00 -0.77500E+00  0.00000E+00  0.00000E+00  0.00000E+00    0.18539E+02  0.24501E+02 -0.43040E+02 -0.45484E+01 -0.45932E+01 -0.10226E+02      982.00
  0.74925E+00  0.68218E+02    0.40000E+00  0.40000E+00 -0.80000E+00  0.00000E+00  0.00000E+00  0.00000E+00    0.18561E+02  0.24597E+02 -0.43158E+02 -0.44856E+01 -0.45964E+01 -0.10194E+02      982.00
  0.77297E+00  0.68354E+02    0.41250E+00  0.41250E+00 -0.82500E+00  0.00000E+00  0.00000E+00  0.00000E+00    0.18578E+02  0.24690E+02 -0.43268E+02 -0.44235E+01 -0.45998E+01 -0.10161E+02      982.00
  0.79671E+00  0.68480E+02    0.42500E+00  0.42500E+00 -0.85000E+00  0.00000E+00  0.00000E+00  0.00000E+00    0.18590E+02  0.24782E+02 -0.43372E+02 -0.43623E+01 -0.46036E+01 -0.10127E+02      982.00
  0.82046E+00  0.68597E+02    0.43750E+00  0.43750E+00 -0.87500E+00  0.00000E+00  0.00000E+00  0.00000E+00    0.18597E+02  0.24871E+02 -0.43468E+02 -0.43019E+01 -0.46077E+01 -0.10092E+02      982.00
  0.84422E+00  0.68635E+02    0.45000E+00  0.45000E+00 -0.90000E+00  0.00000E+00  0.00000E+00  0.00000E+00    0.18581E+02  0.24939E+02 -0.43520E+02 -0.42231E+01 -0.45857E+01 -0.10040E+02      982.00
  0.86800E+00  0.68672E+02    0.46250E+00  0.46250E+00 -0.92500E+00  0.00000E+00  0.00000E+00  0.00000E+00    0.18565E+02  0.25004E+02 -0.43569E+02 -0.41491E+01 -0.45699E+01 -0.99895E+01      982.00
  0.89179E+00  0.68707E+02    0.47500E+00  0.47500E+00 -0.95000E+00  0.00000E+00  0.00000E+00  0.00000E+00    0.18546E+02  0.25069E+02 -0.43615E+02 -0.40770E+01 -0.45557E+01 -0.99408E+01      982.00
  0.91560E+00  0.68745E+02    0.48750E+00  0.48750E+00 -0.97500E+00  0.00000E+00  0.00000E+00  0.00000E+00    0.18522E+02  0.25138E+02 -0.43660E+02 -0.40162E+01 -0.45424E+01 -0.98956E+01      982.00
  0.93941E+00  0.68775E+02    0.50000E+00  0.50000E+00 -0.10000E+01  0.00000E+00  0.00000E+00  0.00000E+00    0.18497E+02  0.25203E+02 -0.43700E+02 -0.39488E+01 -0.45310E+01 -0.98501E+01      982.00
