          Evm          Svm            E11          E22          E33          E23          E13          E12         SDEV11       SDEV22       SDEV33       SDEV23       SDEV13       SDEV12      TEMP
  0.00000E+00  0.53864E+02    0.00000E+00  0.00000E+00  0.00000E+00  0.00000E+00  0.00000E+00  0.00000E+00    0.18725E+02  0.14730E+02 -0.33455E+02 -0.17213E+01 -0.92043E+01 -0.59998E+01      982.00
  0.23291E-01  0.54144E+02    0.12500E-01  0.12500E-01 -0.25000E-01  0.00000E+00  0.00000E+00  0.00000E+00    0.18050E+02  0.15589E+02 -0.33639E+02 -0.26488E+01 -0.89146E+01 -0.63645E+01      982.00
  0.46590E-01  0.54451E+02    0.25000E-01  0.25000E-01 -0.50000E-01  0.00000E+00  0.00000E+00  0.00000E+00    0.17555E+02  0.16264E+02 -0.33819E+02 -0.32375E+01 -0.87107E+01 -0.66150E+01      982.00
  0.69880E-01  0.54778E+02    0.37500E-01  0.37500E-01 -0.75000E-01  0.00000E+00  0.00000E+00  0.00000E+00    0.17228E+02  0.16784E+02 -0.34012E+02 -0.35825E+01 -0.85813E+01 -0.67881E+01      982.00
  0.93164E-01  0.55102E+02    0.50000E-01  0.50000E-01 -0.10000E+00  0.00000E+00  0.00000E+00  0.00000E+00    0.17020E+02  0.17193E+02 -0.34213E+02 -0.37835E+01 -0.84879E+01 -0.69150E+01      982.00
  0.11645E+00  0.55429E+02    0.62500E-01  0.62500E-01 -0.12500E+00  0.00000E+00  0.00000E+00  0.00000E+00    0.16905E+02  0.17520E+02 -0.34425E+02 -0.39027E+01 -0.84105E+01 -0.70169E+01      982.00
  0.13974E+00  0.55771E+02    0.75000E-01  0.75000E-01 -0.15000E+00  0.00000E+00  0.00000E+00  0.00000E+00    0.16857E+02  0.17796E+02 -0.34654E+02 -0.39818E+01 -0.83386E+01 -0.71074E+01      982.00
  0.16304E+00  0.56110E+02    0.87500E-01  0.87500E-01 -0.17500E+00  0.00000E+00  0.00000E+00  0.00000E+00    0.16857E+02  0.18030E+02 -0.34887E+02 -0.40364E+01 -0.82646E+01 -0.71896E+01      982.00
  0.18636E+00  0.56473E+02    0.10000E+00  0.10000E+00 -0.20000E+00  0.00000E+00  0.00000E+00  0.00000E+00    0.16903E+02  0.18235E+02 -0.35138E+02 -0.40791E+01 -0.81923E+01 -0.72719E+01      982.00
  0.20969E+00  0.56850E+02    0.11250E+00  0.11250E+00 -0.22500E+00  0.00000E+00  0.00000E+00  0.00000E+00    0.16980E+02  0.18419E+02 -0.35399E+02 -0.41175E+01 -0.81183E+01 -0.73555E+01      982.00
  0.23304E+00  0.57238E+02    0.12500E+00  0.12500E+00 -0.25000E+00  0.00000E+00  0.00000E+00  0.00000E+00    0.17083E+02  0.18586E+02 -0.35669E+02 -0.41532E+01 -0.80418E+01 -0.74402E+01      982.00
  0.25641E+00  0.57647E+02    0.13750E+00  0.13750E+00 -0.27500E+00  0.00000E+00  0.00000E+00  0.00000E+00    0.17212E+02  0.18743E+02 -0.35955E+02 -0.41893E+01 -0.79649E+01 -0.75238E+01      982.00
  0.27980E+00  0.58071E+02    0.15000E+00  0.15000E+00 -0.30000E+00  0.00000E+00  0.00000E+00  0.00000E+00    0.17360E+02  0.18889E+02 -0.36249E+02 -0.42277E+01 -0.78864E+01 -0.76103E+01      982.00
  0.30320E+00  0.58500E+02    0.16250E+00  0.16250E+00 -0.32500E+00  0.00000E+00  0.00000E+00  0.00000E+00    0.17527E+02  0.19022E+02 -0.36548E+02 -0.42662E+01 -0.78084E+01 -0.76932E+01      982.00
  0.32663E+00  0.58928E+02    0.17500E+00  0.17500E+00 -0.35000E+00  0.00000E+00  0.00000E+00  0.00000E+00    0.17706E+02  0.19139E+02 -0.36845E+02 -0.43072E+01 -0.77313E+01 -0.77766E+01      982.00
  0.35008E+00  0.59361E+02    0.18750E+00  0.18750E+00 -0.37500E+00  0.00000E+00  0.00000E+00  0.00000E+00    0.17897E+02  0.19250E+02 -0.37148E+02 -0.43506E+01 -0.76516E+01 -0.78543E+01      982.00
  0.37355E+00  0.59792E+02    0.20000E+00  0.20000E+00 -0.40000E+00  0.00000E+00  0.00000E+00  0.00000E+00    0.18101E+02  0.19348E+02 -0.37448E+02 -0.43966E+01 -0.75727E+01 -0.79285E+01      982.00
  0.39703E+00  0.60228E+02    0.21250E+00  0.21250E+00 -0.42500E+00  0.00000E+00  0.00000E+00  0.00000E+00    0.18319E+02  0.19434E+02 -0.37753E+02 -0.44454E+01 -0.74929E+01 -0.79977E+01      982.00
  0.42054E+00  0.60659E+02    0.22500E+00  0.22500E+00 -0.45000E+00  0.00000E+00  0.00000E+00  0.00000E+00    0.18552E+02  0.19504E+02 -0.38056E+02 -0.44954E+01 -0.74097E+01 -0.80608E+01      982.00
  0.44407E+00  0.61077E+02    0.23750E+00  0.23750E+00 -0.47500E+00  0.00000E+00  0.00000E+00  0.00000E+00    0.18788E+02  0.19563E+02 -0.38351E+02 -0.45400E+01 -0.73302E+01 -0.81167E+01      982.00
  0.46761E+00  0.61481E+02    0.25000E+00  0.25000E+00 -0.50000E+00  0.00000E+00  0.00000E+00  0.00000E+00    0.19030E+02  0.19608E+02 -0.38638E+02 -0.45832E+01 -0.72492E+01 -0.81643E+01      982.00
  0.49118E+00  0.61872E+02    0.26250E+00  0.26250E+00 -0.52500E+00  0.00000E+00  0.00000E+00  0.00000E+00    0.19277E+02  0.19641E+02 -0.38918E+02 -0.46250E+01 -0.71679E+01 -0.82027E+01      982.00
  0.51477E+00  0.62257E+02    0.27500E+00  0.27500E+00 -0.55000E+00  0.00000E+00  0.00000E+00  0.00000E+00    0.19531E+02  0.19664E+02 -0.39195E+02 -0.46650E+01 -0.70857E+01 -0.82340E+01      982.00
  0.53838E+00  0.62617E+02    0.28750E+00  0.28750E+00 -0.57500E+00  0.00000E+00  0.00000E+00  0.00000E+00    0.19783E+02  0.19673E+02 -0.39456E+02 -0.47039E+01 -0.70019E+01 -0.82581E+01      982.00
  0.56201E+00  0.62969E+02    0.30000E+00  0.30000E+00 -0.60000E+00  0.00000E+00  0.00000E+00  0.00000E+00    0.20039E+02  0.19674E+02 -0.39714E+02 -0.47414E+01 -0.69174E+01 -0.82732E+01      982.00
  0.58566E+00  0.63294E+02    0.31250E+00  0.31250E+00 -0.62500E+00  0.00000E+00  0.00000E+00  0.00000E+00    0.20292E+02  0.19663E+02 -0.39955E+02 -0.47780E+01 -0.68293E+01 -0.82792E+01      982.00
  0.60933E+00  0.63610E+02    0.32500E+00  0.32500E+00 -0.65000E+00  0.00000E+00  0.00000E+00  0.00000E+00    0.20545E+02  0.19644E+02 -0.40189E+02 -0.48126E+01 -0.67429E+01 -0.82796E+01      982.00
  0.63302E+00  0.63909E+02    0.33750E+00  0.33750E+00 -0.67500E+00  0.00000E+00  0.00000E+00  0.00000E+00    0.20797E+02  0.19617E+02 -0.40414E+02 -0.48440E+01 -0.66548E+01 -0.82716E+01      982.00
  0.65674E+00  0.64180E+02    0.35000E+00  0.35000E+00 -0.70000E+00  0.00000E+00  0.00000E+00  0.00000E+00    0.21053E+02  0.19566E+02 -0.40620E+02 -0.48802E+01 -0.65670E+01 -0.82508E+01      982.00
  0.68047E+00  0.64445E+02    0.36250E+00  0.36250E+00 -0.72500E+00  0.00000E+00  0.00000E+00  0.00000E+00    0.21297E+02  0.19525E+02 -0.40822E+02 -0.49093E+01 -0.64759E+01 -0.82286E+01      982.00
  0.70422E+00  0.64698E+02    0.37500E+00  0.37500E+00 -0.75000E+00  0.00000E+00  0.00000E+00  0.00000E+00    0.21539E+02  0.19479E+02 -0.41017E+02 -0.49359E+01 -0.63867E+01 -0.82011E+01      982.00
  0.72800E+00  0.64933E+02    0.38750E+00  0.38750E+00 -0.77500E+00  0.00000E+00  0.00000E+00  0.00000E+00    0.21776E+02  0.19424E+02 -0.41200E+02 -0.49616E+01 -0.62986E+01 -0.81670E+01      982.00
  0.75179E+00  0.65176E+02    0.40000E+00  0.40000E+00 -0.80000E+00  0.00000E+00  0.00000E+00  0.00000E+00    0.21990E+02  0.19393E+02 -0.41383E+02 -0.49723E+01 -0.62251E+01 -0.81474E+01      982.00
  0.77560E+00  0.65384E+02    0.41250E+00  0.41250E+00 -0.82500E+00  0.00000E+00  0.00000E+00  0.00000E+00    0.22222E+02  0.19325E+02 -0.41547E+02 -0.49938E+01 -0.61407E+01 -0.81031E+01      982.00
  0.79943E+00  0.65575E+02    0.42500E+00  0.42500E+00 -0.85000E+00  0.00000E+00  0.00000E+00  0.00000E+00    0.22445E+02  0.19254E+02 -0.41699E+02 -0.50148E+01 -0.60545E+01 -0.80540E+01      982.00
  0.82328E+00  0.65767E+02    0.43750E+00  0.43750E+00 -0.87500E+00  0.00000E+00  0.00000E+00  0.00000E+00    0.22676E+02  0.19177E+02 -0.41853E+02 -0.50360E+01 -0.59706E+01 -0.79955E+01      982.00
  0.84714E+00  0.65938E+02    0.45000E+00  0.45000E+00 -0.90000E+00  0.00000E+00  0.00000E+00  0.00000E+00    0.22892E+02  0.19100E+02 -0.41992E+02 -0.50544E+01 -0.58865E+01 -0.79375E+01      982.00
  0.87102E+00  0.66099E+02    0.46250E+00  0.46250E+00 -0.92500E+00  0.00000E+00  0.00000E+00  0.00000E+00    0.23102E+02  0.19021E+02 -0.42123E+02 -0.50709E+01 -0.58037E+01 -0.78758E+01      982.00
  0.89492E+00  0.66258E+02    0.47500E+00  0.47500E+00 -0.95000E+00  0.00000E+00  0.00000E+00  0.00000E+00    0.23310E+02  0.18942E+02 -0.42252E+02 -0.50890E+01 -0.57226E+01 -0.78108E+01      982.00
  0.91883E+00  0.66398E+02    0.48750E+00  0.48750E+00 -0.97500E+00  0.00000E+00  0.00000E+00  0.00000E+00    0.23518E+02  0.18851E+02 -0.42368E+02 -0.51041E+01 -0.56453E+01 -0.77381E+01      982.00
  0.94276E+00  0.66471E+02    0.50000E+00  0.50000E+00 -0.10000E+01  0.00000E+00  0.00000E+00  0.00000E+00    0.23670E+02  0.18779E+02 -0.42449E+02 -0.51019E+01 -0.55354E+01 -0.76617E+01      982.00
