          Evm          Svm            E11          E22          E33          E23          E13          E12         SDEV11       SDEV22       SDEV33       SDEV23       SDEV13       SDEV12      TEMP
  0.00000E+00  0.55121E+02    0.00000E+00  0.00000E+00  0.00000E+00  0.00000E+00  0.00000E+00  0.00000E+00    0.14650E+02  0.20341E+02 -0.34991E+02 -0.32394E+01  0.11133E+01  0.86419E+01      982.00
  0.23805E-01  0.55049E+02    0.12500E-01  0.12500E-01 -0.25000E-01  0.00000E+00  0.00000E+00  0.00000E+00    0.15016E+02  0.19905E+02 -0.34921E+02 -0.31078E+01  0.13075E+01  0.88424E+01      982.00
  0.47593E-01  0.55126E+02    0.25000E-01  0.25000E-01 -0.50000E-01  0.00000E+00  0.00000E+00  0.00000E+00    0.15497E+02  0.19429E+02 -0.34926E+02 -0.29208E+01  0.15331E+01  0.91303E+01      982.00
  0.71352E-01  0.55323E+02    0.37500E-01  0.37500E-01 -0.75000E-01  0.00000E+00  0.00000E+00  0.00000E+00    0.16070E+02  0.18911E+02 -0.34981E+02 -0.26880E+01  0.17776E+01  0.94896E+01      982.00
  0.95063E-01  0.55589E+02    0.50000E-01  0.50000E-01 -0.10000E+00  0.00000E+00  0.00000E+00  0.00000E+00    0.16644E+02  0.18415E+02 -0.35059E+02 -0.24551E+01  0.20066E+01  0.98682E+01      982.00
  0.11871E+00  0.55904E+02    0.62500E-01  0.62500E-01 -0.12500E+00  0.00000E+00  0.00000E+00  0.00000E+00    0.17158E+02  0.17993E+02 -0.35151E+02 -0.22444E+01  0.21997E+01  0.10247E+02      982.00
  0.14229E+00  0.56264E+02    0.75000E-01  0.75000E-01 -0.15000E+00  0.00000E+00  0.00000E+00  0.00000E+00    0.17584E+02  0.17678E+02 -0.35262E+02 -0.20595E+01  0.23495E+01  0.10626E+02      982.00
  0.16579E+00  0.56670E+02    0.87500E-01  0.87500E-01 -0.17500E+00  0.00000E+00  0.00000E+00  0.00000E+00    0.17941E+02  0.17453E+02 -0.35394E+02 -0.18910E+01  0.24637E+01  0.11010E+02      982.00
  0.18922E+00  0.57104E+02    0.10000E+00  0.10000E+00 -0.20000E+00  0.00000E+00  0.00000E+00  0.00000E+00    0.18225E+02  0.17318E+02 -0.35543E+02 -0.17397E+01  0.25406E+01  0.11392E+02      982.00
  0.21256E+00  0.57554E+02    0.11250E+00  0.11250E+00 -0.22500E+00  0.00000E+00  0.00000E+00  0.00000E+00    0.18451E+02  0.17253E+02 -0.35704E+02 -0.16027E+01  0.25861E+01  0.11767E+02      982.00
  0.23582E+00  0.58008E+02    0.12500E+00  0.12500E+00 -0.25000E+00  0.00000E+00  0.00000E+00  0.00000E+00    0.18629E+02  0.17242E+02 -0.35871E+02 -0.14785E+01  0.26050E+01  0.12129E+02      982.00
  0.25901E+00  0.58456E+02    0.13750E+00  0.13750E+00 -0.27500E+00  0.00000E+00  0.00000E+00  0.00000E+00    0.18770E+02  0.17269E+02 -0.36039E+02 -0.13661E+01  0.26012E+01  0.12478E+02      982.00
  0.28213E+00  0.58889E+02    0.15000E+00  0.15000E+00 -0.30000E+00  0.00000E+00  0.00000E+00  0.00000E+00    0.18877E+02  0.17328E+02 -0.36205E+02 -0.12834E+01  0.25742E+01  0.12806E+02      982.00
  0.30518E+00  0.59309E+02    0.16250E+00  0.16250E+00 -0.32500E+00  0.00000E+00  0.00000E+00  0.00000E+00    0.18967E+02  0.17401E+02 -0.36367E+02 -0.12179E+01  0.25336E+01  0.13117E+02      982.00
  0.32818E+00  0.59716E+02    0.17500E+00  0.17500E+00 -0.35000E+00  0.00000E+00  0.00000E+00  0.00000E+00    0.19042E+02  0.17482E+02 -0.36524E+02 -0.11549E+01  0.24821E+01  0.13418E+02      982.00
  0.35112E+00  0.60074E+02    0.18750E+00  0.18750E+00 -0.37500E+00  0.00000E+00  0.00000E+00  0.00000E+00    0.19101E+02  0.17562E+02 -0.36663E+02 -0.11289E+01  0.24245E+01  0.13678E+02      982.00
  0.37400E+00  0.60444E+02    0.20000E+00  0.20000E+00 -0.40000E+00  0.00000E+00  0.00000E+00  0.00000E+00    0.19163E+02  0.17645E+02 -0.36808E+02 -0.11132E+01  0.23584E+01  0.13941E+02      982.00
  0.39684E+00  0.60797E+02    0.21250E+00  0.21250E+00 -0.42500E+00  0.00000E+00  0.00000E+00  0.00000E+00    0.19221E+02  0.17724E+02 -0.36945E+02 -0.11113E+01  0.22877E+01  0.14191E+02      982.00
  0.41962E+00  0.61134E+02    0.22500E+00  0.22500E+00 -0.45000E+00  0.00000E+00  0.00000E+00  0.00000E+00    0.19276E+02  0.17798E+02 -0.37074E+02 -0.11221E+01  0.22136E+01  0.14430E+02      982.00
  0.44237E+00  0.61455E+02    0.23750E+00  0.23750E+00 -0.47500E+00  0.00000E+00  0.00000E+00  0.00000E+00    0.19330E+02  0.17866E+02 -0.37196E+02 -0.11438E+01  0.21370E+01  0.14658E+02      982.00
  0.46506E+00  0.61761E+02    0.25000E+00  0.25000E+00 -0.50000E+00  0.00000E+00  0.00000E+00  0.00000E+00    0.19383E+02  0.17926E+02 -0.37310E+02 -0.11749E+01  0.20590E+01  0.14876E+02      982.00
  0.48772E+00  0.62052E+02    0.26250E+00  0.26250E+00 -0.52500E+00  0.00000E+00  0.00000E+00  0.00000E+00    0.19436E+02  0.17980E+02 -0.37416E+02 -0.12136E+01  0.19807E+01  0.15086E+02      982.00
  0.51033E+00  0.62335E+02    0.27500E+00  0.27500E+00 -0.55000E+00  0.00000E+00  0.00000E+00  0.00000E+00    0.19489E+02  0.18028E+02 -0.37517E+02 -0.12596E+01  0.19028E+01  0.15292E+02      982.00
  0.53290E+00  0.62591E+02    0.28750E+00  0.28750E+00 -0.57500E+00  0.00000E+00  0.00000E+00  0.00000E+00    0.19540E+02  0.18065E+02 -0.37604E+02 -0.13064E+01  0.18283E+01  0.15483E+02      982.00
  0.55543E+00  0.62842E+02    0.30000E+00  0.30000E+00 -0.60000E+00  0.00000E+00  0.00000E+00  0.00000E+00    0.19592E+02  0.18095E+02 -0.37688E+02 -0.13577E+01  0.17567E+01  0.15672E+02      982.00
  0.57792E+00  0.63080E+02    0.31250E+00  0.31250E+00 -0.62500E+00  0.00000E+00  0.00000E+00  0.00000E+00    0.19646E+02  0.18118E+02 -0.37764E+02 -0.14098E+01  0.16899E+01  0.15854E+02      982.00
  0.60037E+00  0.63306E+02    0.32500E+00  0.32500E+00 -0.65000E+00  0.00000E+00  0.00000E+00  0.00000E+00    0.19701E+02  0.18133E+02 -0.37834E+02 -0.14611E+01  0.16292E+01  0.16030E+02      982.00
  0.62278E+00  0.63520E+02    0.33750E+00  0.33750E+00 -0.67500E+00  0.00000E+00  0.00000E+00  0.00000E+00    0.19757E+02  0.18140E+02 -0.37897E+02 -0.15102E+01  0.15758E+01  0.16198E+02      982.00
  0.64515E+00  0.63721E+02    0.35000E+00  0.35000E+00 -0.70000E+00  0.00000E+00  0.00000E+00  0.00000E+00    0.19815E+02  0.18139E+02 -0.37953E+02 -0.15560E+01  0.15306E+01  0.16360E+02      982.00
  0.66749E+00  0.63903E+02    0.36250E+00  0.36250E+00 -0.72500E+00  0.00000E+00  0.00000E+00  0.00000E+00    0.19874E+02  0.18128E+02 -0.38002E+02 -0.15985E+01  0.14874E+01  0.16509E+02      982.00
  0.68979E+00  0.64085E+02    0.37500E+00  0.37500E+00 -0.75000E+00  0.00000E+00  0.00000E+00  0.00000E+00    0.19934E+02  0.18114E+02 -0.38048E+02 -0.16381E+01  0.14667E+01  0.16660E+02      982.00
  0.71205E+00  0.64250E+02    0.38750E+00  0.38750E+00 -0.77500E+00  0.00000E+00  0.00000E+00  0.00000E+00    0.19998E+02  0.18091E+02 -0.38089E+02 -0.16701E+01  0.14474E+01  0.16797E+02      982.00
  0.73428E+00  0.64375E+02    0.40000E+00  0.40000E+00 -0.80000E+00  0.00000E+00  0.00000E+00  0.00000E+00    0.20058E+02  0.18060E+02 -0.38118E+02 -0.16964E+01  0.14326E+01  0.16904E+02      982.00
  0.75649E+00  0.64520E+02    0.41250E+00  0.41250E+00 -0.82500E+00  0.00000E+00  0.00000E+00  0.00000E+00    0.20126E+02  0.18026E+02 -0.38152E+02 -0.17211E+01  0.14275E+01  0.17025E+02      982.00
  0.77866E+00  0.64661E+02    0.42500E+00  0.42500E+00 -0.85000E+00  0.00000E+00  0.00000E+00  0.00000E+00    0.20217E+02  0.17970E+02 -0.38187E+02 -0.17435E+01  0.14233E+01  0.17137E+02      982.00
  0.80081E+00  0.64781E+02    0.43750E+00  0.43750E+00 -0.87500E+00  0.00000E+00  0.00000E+00  0.00000E+00    0.20289E+02  0.17925E+02 -0.38214E+02 -0.17644E+01  0.14288E+01  0.17237E+02      982.00
  0.82293E+00  0.64891E+02    0.45000E+00  0.45000E+00 -0.90000E+00  0.00000E+00  0.00000E+00  0.00000E+00    0.20360E+02  0.17878E+02 -0.38238E+02 -0.17827E+01  0.14373E+01  0.17327E+02      982.00
  0.84503E+00  0.64991E+02    0.46250E+00  0.46250E+00 -0.92500E+00  0.00000E+00  0.00000E+00  0.00000E+00    0.20430E+02  0.17829E+02 -0.38260E+02 -0.18002E+01  0.14467E+01  0.17409E+02      982.00
  0.86710E+00  0.65082E+02    0.47500E+00  0.47500E+00 -0.95000E+00  0.00000E+00  0.00000E+00  0.00000E+00    0.20500E+02  0.17780E+02 -0.38280E+02 -0.18175E+01  0.14560E+01  0.17482E+02      982.00
  0.88916E+00  0.65130E+02    0.48750E+00  0.48750E+00 -0.97500E+00  0.00000E+00  0.00000E+00  0.00000E+00    0.20562E+02  0.17716E+02 -0.38278E+02 -0.18295E+01  0.14607E+01  0.17537E+02      982.00
  0.91120E+00  0.65165E+02    0.50000E+00  0.50000E+00 -0.10000E+01  0.00000E+00  0.00000E+00  0.00000E+00    0.20620E+02  0.17655E+02 -0.38275E+02 -0.18402E+01  0.14659E+01  0.17579E+02      982.00
