          Evm          Svm            E11          E22          E33          E23          E13          E12         SDEV11       SDEV22       SDEV33       SDEV23       SDEV13       SDEV12      TEMP
  0.00000E+00  0.61363E+02    0.00000E+00  0.00000E+00  0.00000E+00  0.00000E+00  0.00000E+00  0.00000E+00    0.22326E+02  0.18133E+02 -0.40459E+02 -0.18733E+01  0.96097E+00  0.43104E+01      982.00
  0.24726E-01  0.61605E+02    0.12500E-01  0.12500E-01 -0.25000E-01  0.00000E+00  0.00000E+00  0.00000E+00    0.21411E+02  0.19196E+02 -0.40608E+02 -0.21609E+01  0.97091E+00  0.46361E+01      982.00
  0.49444E-01  0.61846E+02    0.25000E-01  0.25000E-01 -0.50000E-01  0.00000E+00  0.00000E+00  0.00000E+00    0.20558E+02  0.20182E+02 -0.40739E+02 -0.23156E+01  0.99357E+00  0.48798E+01      982.00
  0.74146E-01  0.62047E+02    0.37500E-01  0.37500E-01 -0.75000E-01  0.00000E+00  0.00000E+00  0.00000E+00    0.19863E+02  0.20977E+02 -0.40841E+02 -0.23309E+01  0.10146E+01  0.50544E+01      982.00
  0.98829E-01  0.62222E+02    0.50000E-01  0.50000E-01 -0.10000E+00  0.00000E+00  0.00000E+00  0.00000E+00    0.19335E+02  0.21590E+02 -0.40925E+02 -0.22523E+01  0.10243E+01  0.51960E+01      982.00
  0.12349E+00  0.62392E+02    0.62500E-01  0.62500E-01 -0.12500E+00  0.00000E+00  0.00000E+00  0.00000E+00    0.18940E+02  0.22067E+02 -0.41007E+02 -0.21257E+01  0.10204E+01  0.53305E+01      982.00
  0.14814E+00  0.62575E+02    0.75000E-01  0.75000E-01 -0.15000E+00  0.00000E+00  0.00000E+00  0.00000E+00    0.18657E+02  0.22442E+02 -0.41099E+02 -0.19756E+01  0.10058E+01  0.54686E+01      982.00
  0.17277E+00  0.62783E+02    0.87500E-01  0.87500E-01 -0.17500E+00  0.00000E+00  0.00000E+00  0.00000E+00    0.18453E+02  0.22753E+02 -0.41206E+02 -0.18219E+01  0.98311E+00  0.56161E+01      982.00
  0.19738E+00  0.63017E+02    0.10000E+00  0.10000E+00 -0.20000E+00  0.00000E+00  0.00000E+00  0.00000E+00    0.18309E+02  0.23021E+02 -0.41330E+02 -0.16733E+01  0.95536E+00  0.57735E+01      982.00
  0.22198E+00  0.63277E+02    0.11250E+00  0.11250E+00 -0.22500E+00  0.00000E+00  0.00000E+00  0.00000E+00    0.18207E+02  0.23262E+02 -0.41469E+02 -0.15336E+01  0.92495E+00  0.59408E+01      982.00
  0.24655E+00  0.63561E+02    0.12500E+00  0.12500E+00 -0.25000E+00  0.00000E+00  0.00000E+00  0.00000E+00    0.18136E+02  0.23486E+02 -0.41622E+02 -0.14028E+01  0.89362E+00  0.61185E+01      982.00
  0.27111E+00  0.63865E+02    0.13750E+00  0.13750E+00 -0.27500E+00  0.00000E+00  0.00000E+00  0.00000E+00    0.18096E+02  0.23692E+02 -0.41788E+02 -0.12763E+01  0.86283E+00  0.63010E+01      982.00
  0.29565E+00  0.64182E+02    0.15000E+00  0.15000E+00 -0.30000E+00  0.00000E+00  0.00000E+00  0.00000E+00    0.18064E+02  0.23896E+02 -0.41959E+02 -0.11602E+01  0.83271E+00  0.64923E+01      982.00
  0.32016E+00  0.64506E+02    0.16250E+00  0.16250E+00 -0.32500E+00  0.00000E+00  0.00000E+00  0.00000E+00    0.18048E+02  0.24087E+02 -0.42135E+02 -0.10477E+01  0.80377E+00  0.66789E+01      982.00
  0.34466E+00  0.64838E+02    0.17500E+00  0.17500E+00 -0.35000E+00  0.00000E+00  0.00000E+00  0.00000E+00    0.18031E+02  0.24281E+02 -0.42312E+02 -0.94036E+00  0.77605E+00  0.68793E+01      982.00
  0.36913E+00  0.65159E+02    0.18750E+00  0.18750E+00 -0.37500E+00  0.00000E+00  0.00000E+00  0.00000E+00    0.18022E+02  0.24462E+02 -0.42484E+02 -0.83721E+00  0.74859E+00  0.70645E+01      982.00
  0.39358E+00  0.65446E+02    0.20000E+00  0.20000E+00 -0.40000E+00  0.00000E+00  0.00000E+00  0.00000E+00    0.18019E+02  0.24620E+02 -0.42639E+02 -0.73932E+00  0.72259E+00  0.72253E+01      982.00
  0.41801E+00  0.65751E+02    0.21250E+00  0.21250E+00 -0.42500E+00  0.00000E+00  0.00000E+00  0.00000E+00    0.18000E+02  0.24796E+02 -0.42796E+02 -0.64548E+00  0.69458E+00  0.74154E+01      982.00
  0.44242E+00  0.66041E+02    0.22500E+00  0.22500E+00 -0.45000E+00  0.00000E+00  0.00000E+00  0.00000E+00    0.17985E+02  0.24961E+02 -0.42945E+02 -0.54946E+00  0.66472E+00  0.75946E+01      982.00
  0.46680E+00  0.66317E+02    0.23750E+00  0.23750E+00 -0.47500E+00  0.00000E+00  0.00000E+00  0.00000E+00    0.17967E+02  0.25118E+02 -0.43085E+02 -0.45512E+00  0.63221E+00  0.77713E+01      982.00
  0.49117E+00  0.66578E+02    0.25000E+00  0.25000E+00 -0.50000E+00  0.00000E+00  0.00000E+00  0.00000E+00    0.17947E+02  0.25266E+02 -0.43213E+02 -0.36260E+00  0.59587E+00  0.79454E+01      982.00
  0.51551E+00  0.66837E+02    0.26250E+00  0.26250E+00 -0.52500E+00  0.00000E+00  0.00000E+00  0.00000E+00    0.17920E+02  0.25416E+02 -0.43336E+02 -0.26909E+00  0.55091E+00  0.81315E+01      982.00
  0.53982E+00  0.67062E+02    0.27500E+00  0.27500E+00 -0.55000E+00  0.00000E+00  0.00000E+00  0.00000E+00    0.17901E+02  0.25541E+02 -0.43442E+02 -0.18080E+00  0.50275E+00  0.82979E+01      982.00
  0.56411E+00  0.67296E+02    0.28750E+00  0.28750E+00 -0.57500E+00  0.00000E+00  0.00000E+00  0.00000E+00    0.17882E+02  0.25664E+02 -0.43546E+02 -0.81438E-01  0.43847E+00  0.84858E+01      982.00
  0.58838E+00  0.67485E+02    0.30000E+00  0.30000E+00 -0.60000E+00  0.00000E+00  0.00000E+00  0.00000E+00    0.17878E+02  0.25752E+02 -0.43630E+02  0.23878E-02  0.37395E+00  0.86436E+01      982.00
  0.61262E+00  0.67657E+02    0.31250E+00  0.31250E+00 -0.62500E+00  0.00000E+00  0.00000E+00  0.00000E+00    0.17887E+02  0.25818E+02 -0.43705E+02  0.84342E-01  0.30196E+00  0.87978E+01      982.00
  0.63685E+00  0.67800E+02    0.32500E+00  0.32500E+00 -0.65000E+00  0.00000E+00  0.00000E+00  0.00000E+00    0.17906E+02  0.25860E+02 -0.43766E+02  0.14997E+00  0.23869E+00  0.89320E+01      982.00
  0.66105E+00  0.67951E+02    0.33750E+00  0.33750E+00 -0.67500E+00  0.00000E+00  0.00000E+00  0.00000E+00    0.17930E+02  0.25897E+02 -0.43827E+02  0.22640E+00  0.15694E+00  0.90852E+01      982.00
  0.68524E+00  0.68086E+02    0.35000E+00  0.35000E+00 -0.70000E+00  0.00000E+00  0.00000E+00  0.00000E+00    0.17960E+02  0.25921E+02 -0.43880E+02  0.29566E+00  0.73710E-01  0.92308E+01      982.00
  0.70941E+00  0.68210E+02    0.36250E+00  0.36250E+00 -0.72500E+00  0.00000E+00  0.00000E+00  0.00000E+00    0.18006E+02  0.25921E+02 -0.43927E+02  0.36590E+00 -0.20496E-01  0.93728E+01      982.00
  0.73356E+00  0.68325E+02    0.37500E+00  0.37500E+00 -0.75000E+00  0.00000E+00  0.00000E+00  0.00000E+00    0.18054E+02  0.25916E+02 -0.43969E+02  0.43367E+00 -0.11585E+00  0.95116E+01      982.00
  0.75769E+00  0.68427E+02    0.38750E+00  0.38750E+00 -0.77500E+00  0.00000E+00  0.00000E+00  0.00000E+00    0.18119E+02  0.25887E+02 -0.44006E+02  0.50141E+00 -0.21656E+00  0.96426E+01      982.00
  0.78181E+00  0.68518E+02    0.40000E+00  0.40000E+00 -0.80000E+00  0.00000E+00  0.00000E+00  0.00000E+00    0.18192E+02  0.25845E+02 -0.44037E+02  0.56907E+00 -0.31912E+00  0.97677E+01      982.00
  0.80591E+00  0.68601E+02    0.41250E+00  0.41250E+00 -0.82500E+00  0.00000E+00  0.00000E+00  0.00000E+00    0.18271E+02  0.25793E+02 -0.44064E+02  0.63702E+00 -0.42266E+00  0.98866E+01      982.00
  0.83000E+00  0.68676E+02    0.42500E+00  0.42500E+00 -0.85000E+00  0.00000E+00  0.00000E+00  0.00000E+00    0.18355E+02  0.25733E+02 -0.44087E+02  0.70560E+00 -0.52649E+00  0.99993E+01      982.00
  0.85407E+00  0.68743E+02    0.43750E+00  0.43750E+00 -0.87500E+00  0.00000E+00  0.00000E+00  0.00000E+00    0.18440E+02  0.25666E+02 -0.44106E+02  0.77502E+00 -0.63011E+00  0.10106E+02      982.00
  0.87813E+00  0.68803E+02    0.45000E+00  0.45000E+00 -0.90000E+00  0.00000E+00  0.00000E+00  0.00000E+00    0.18527E+02  0.25594E+02 -0.44122E+02  0.84539E+00 -0.73316E+00  0.10206E+02      982.00
  0.90218E+00  0.68852E+02    0.46250E+00  0.46250E+00 -0.92500E+00  0.00000E+00  0.00000E+00  0.00000E+00    0.18628E+02  0.25505E+02 -0.44133E+02  0.92036E+00 -0.84112E+00  0.10298E+02      982.00
  0.92622E+00  0.68900E+02    0.47500E+00  0.47500E+00 -0.95000E+00  0.00000E+00  0.00000E+00  0.00000E+00    0.18713E+02  0.25428E+02 -0.44141E+02  0.99289E+00 -0.94299E+00  0.10387E+02      982.00
  0.95024E+00  0.68901E+02    0.48750E+00  0.48750E+00 -0.97500E+00  0.00000E+00  0.00000E+00  0.00000E+00    0.18786E+02  0.25337E+02 -0.44122E+02  0.10620E+01 -0.10395E+01  0.10462E+02      982.00
  0.97425E+00  0.68901E+02    0.50000E+00  0.50000E+00 -0.10000E+01  0.00000E+00  0.00000E+00  0.00000E+00    0.18856E+02  0.25246E+02 -0.44102E+02  0.11321E+01 -0.11343E+01  0.10532E+02      982.00
