          Evm          Svm            E11          E22          E33          E23          E13          E12         SDEV11       SDEV22       SDEV33       SDEV23       SDEV13       SDEV12      TEMP
  0.00000E+00  0.60098E+02    0.00000E+00  0.00000E+00  0.00000E+00  0.00000E+00  0.00000E+00  0.00000E+00    0.15272E+02  0.18606E+02 -0.33879E+02 -0.48031E+00  0.30159E+00  0.18438E+02      982.00
  0.21140E-01  0.60224E+02    0.12500E-01  0.12500E-01 -0.25000E-01  0.00000E+00  0.00000E+00  0.00000E+00    0.15252E+02  0.18678E+02 -0.33930E+02  0.33238E-02 -0.25496E+00  0.18508E+02      982.00
  0.42267E-01  0.60372E+02    0.25000E-01  0.25000E-01 -0.50000E-01  0.00000E+00  0.00000E+00  0.00000E+00    0.15249E+02  0.18760E+02 -0.34009E+02  0.46179E+00 -0.77396E+00  0.18536E+02      982.00
  0.63392E-01  0.60545E+02    0.37500E-01  0.37500E-01 -0.75000E-01  0.00000E+00  0.00000E+00  0.00000E+00    0.15262E+02  0.18864E+02 -0.34126E+02  0.91935E+00 -0.12868E+01  0.18512E+02      982.00
  0.84529E-01  0.60711E+02    0.50000E-01  0.50000E-01 -0.10000E+00  0.00000E+00  0.00000E+00  0.00000E+00    0.15281E+02  0.18987E+02 -0.34268E+02  0.13721E+01 -0.17860E+01  0.18423E+02      982.00
  0.10570E+00  0.60881E+02    0.62500E-01  0.62500E-01 -0.12500E+00  0.00000E+00  0.00000E+00  0.00000E+00    0.15306E+02  0.19136E+02 -0.34442E+02  0.18286E+01 -0.22768E+01  0.18266E+02      982.00
  0.12691E+00  0.61033E+02    0.75000E-01  0.75000E-01 -0.15000E+00  0.00000E+00  0.00000E+00  0.00000E+00    0.15331E+02  0.19302E+02 -0.34633E+02  0.22749E+01 -0.27401E+01  0.18041E+02      982.00
  0.14819E+00  0.61179E+02    0.87500E-01  0.87500E-01 -0.17500E+00  0.00000E+00  0.00000E+00  0.00000E+00    0.15362E+02  0.19480E+02 -0.34842E+02  0.26895E+01 -0.31531E+01  0.17768E+02      982.00
  0.16955E+00  0.61328E+02    0.10000E+00  0.10000E+00 -0.20000E+00  0.00000E+00  0.00000E+00  0.00000E+00    0.15401E+02  0.19665E+02 -0.35065E+02  0.30551E+01 -0.35003E+01  0.17475E+02      982.00
  0.19099E+00  0.61508E+02    0.11250E+00  0.11250E+00 -0.22500E+00  0.00000E+00  0.00000E+00  0.00000E+00    0.15455E+02  0.19855E+02 -0.35310E+02  0.33589E+01 -0.37734E+01  0.17194E+02      982.00
  0.21251E+00  0.61719E+02    0.12500E+00  0.12500E+00 -0.25000E+00  0.00000E+00  0.00000E+00  0.00000E+00    0.15523E+02  0.20047E+02 -0.35570E+02  0.36039E+01 -0.39831E+01  0.16937E+02      982.00
  0.23413E+00  0.61948E+02    0.13750E+00  0.13750E+00 -0.27500E+00  0.00000E+00  0.00000E+00  0.00000E+00    0.15602E+02  0.20234E+02 -0.35836E+02  0.38015E+01 -0.41428E+01  0.16704E+02      982.00
  0.25582E+00  0.62208E+02    0.15000E+00  0.15000E+00 -0.30000E+00  0.00000E+00  0.00000E+00  0.00000E+00    0.15696E+02  0.20422E+02 -0.36118E+02  0.39617E+01 -0.42679E+01  0.16495E+02      982.00
  0.27759E+00  0.62477E+02    0.16250E+00  0.16250E+00 -0.32500E+00  0.00000E+00  0.00000E+00  0.00000E+00    0.15800E+02  0.20600E+02 -0.36400E+02  0.40916E+01 -0.43661E+01  0.16304E+02      982.00
  0.29944E+00  0.62747E+02    0.17500E+00  0.17500E+00 -0.35000E+00  0.00000E+00  0.00000E+00  0.00000E+00    0.15910E+02  0.20768E+02 -0.36678E+02  0.41984E+01 -0.44452E+01  0.16128E+02      982.00
  0.32136E+00  0.63019E+02    0.18750E+00  0.18750E+00 -0.37500E+00  0.00000E+00  0.00000E+00  0.00000E+00    0.16028E+02  0.20926E+02 -0.36954E+02  0.42889E+01 -0.45121E+01  0.15964E+02      982.00
  0.34335E+00  0.63303E+02    0.20000E+00  0.20000E+00 -0.40000E+00  0.00000E+00  0.00000E+00  0.00000E+00    0.16159E+02  0.21072E+02 -0.37231E+02  0.43620E+01 -0.45660E+01  0.15819E+02      982.00
  0.36541E+00  0.63583E+02    0.21250E+00  0.21250E+00 -0.42500E+00  0.00000E+00  0.00000E+00  0.00000E+00    0.16294E+02  0.21208E+02 -0.37503E+02  0.44242E+01 -0.46129E+01  0.15680E+02      982.00
  0.38752E+00  0.63846E+02    0.22500E+00  0.22500E+00 -0.45000E+00  0.00000E+00  0.00000E+00  0.00000E+00    0.16431E+02  0.21332E+02 -0.37762E+02  0.44846E+01 -0.46600E+01  0.15539E+02      982.00
  0.40970E+00  0.64109E+02    0.23750E+00  0.23750E+00 -0.47500E+00  0.00000E+00  0.00000E+00  0.00000E+00    0.16572E+02  0.21446E+02 -0.38018E+02  0.45297E+01 -0.46954E+01  0.15410E+02      982.00
  0.43194E+00  0.64371E+02    0.25000E+00  0.25000E+00 -0.50000E+00  0.00000E+00  0.00000E+00  0.00000E+00    0.16718E+02  0.21551E+02 -0.38270E+02  0.45669E+01 -0.47258E+01  0.15289E+02      982.00
  0.45424E+00  0.64625E+02    0.26250E+00  0.26250E+00 -0.52500E+00  0.00000E+00  0.00000E+00  0.00000E+00    0.16865E+02  0.21649E+02 -0.38515E+02  0.45976E+01 -0.47516E+01  0.15172E+02      982.00
  0.47659E+00  0.64850E+02    0.27500E+00  0.27500E+00 -0.55000E+00  0.00000E+00  0.00000E+00  0.00000E+00    0.17009E+02  0.21730E+02 -0.38739E+02  0.46300E+01 -0.47802E+01  0.15049E+02      982.00
  0.49899E+00  0.65079E+02    0.28750E+00  0.28750E+00 -0.57500E+00  0.00000E+00  0.00000E+00  0.00000E+00    0.17153E+02  0.21808E+02 -0.38961E+02  0.46475E+01 -0.47969E+01  0.14942E+02      982.00
  0.52144E+00  0.65301E+02    0.30000E+00  0.30000E+00 -0.60000E+00  0.00000E+00  0.00000E+00  0.00000E+00    0.17296E+02  0.21881E+02 -0.39176E+02  0.46593E+01 -0.48097E+01  0.14840E+02      982.00
  0.54393E+00  0.65510E+02    0.31250E+00  0.31250E+00 -0.62500E+00  0.00000E+00  0.00000E+00  0.00000E+00    0.17436E+02  0.21946E+02 -0.39382E+02  0.46660E+01 -0.48186E+01  0.14740E+02      982.00
  0.56648E+00  0.65710E+02    0.32500E+00  0.32500E+00 -0.65000E+00  0.00000E+00  0.00000E+00  0.00000E+00    0.17572E+02  0.22005E+02 -0.39577E+02  0.46668E+01 -0.48231E+01  0.14647E+02      982.00
  0.58906E+00  0.65893E+02    0.33750E+00  0.33750E+00 -0.67500E+00  0.00000E+00  0.00000E+00  0.00000E+00    0.17713E+02  0.22050E+02 -0.39763E+02  0.46721E+01 -0.48315E+01  0.14547E+02      982.00
  0.61169E+00  0.66068E+02    0.35000E+00  0.35000E+00 -0.70000E+00  0.00000E+00  0.00000E+00  0.00000E+00    0.17840E+02  0.22095E+02 -0.39936E+02  0.46656E+01 -0.48304E+01  0.14465E+02      982.00
  0.63436E+00  0.66231E+02    0.36250E+00  0.36250E+00 -0.72500E+00  0.00000E+00  0.00000E+00  0.00000E+00    0.17963E+02  0.22137E+02 -0.40099E+02  0.46552E+01 -0.48257E+01  0.14384E+02      982.00
  0.65706E+00  0.66388E+02    0.37500E+00  0.37500E+00 -0.75000E+00  0.00000E+00  0.00000E+00  0.00000E+00    0.18081E+02  0.22175E+02 -0.40257E+02  0.46420E+01 -0.48189E+01  0.14309E+02      982.00
  0.67980E+00  0.66535E+02    0.38750E+00  0.38750E+00 -0.77500E+00  0.00000E+00  0.00000E+00  0.00000E+00    0.18195E+02  0.22210E+02 -0.40404E+02  0.46259E+01 -0.48103E+01  0.14237E+02      982.00
  0.70258E+00  0.66674E+02    0.40000E+00  0.40000E+00 -0.80000E+00  0.00000E+00  0.00000E+00  0.00000E+00    0.18317E+02  0.22231E+02 -0.40548E+02  0.46098E+01 -0.48012E+01  0.14163E+02      982.00
  0.72538E+00  0.66798E+02    0.41250E+00  0.41250E+00 -0.82500E+00  0.00000E+00  0.00000E+00  0.00000E+00    0.18420E+02  0.22255E+02 -0.40676E+02  0.45886E+01 -0.47875E+01  0.14100E+02      982.00
  0.74822E+00  0.66923E+02    0.42500E+00  0.42500E+00 -0.85000E+00  0.00000E+00  0.00000E+00  0.00000E+00    0.18520E+02  0.22281E+02 -0.40801E+02  0.45662E+01 -0.47738E+01  0.14042E+02      982.00
  0.77108E+00  0.67034E+02    0.43750E+00  0.43750E+00 -0.87500E+00  0.00000E+00  0.00000E+00  0.00000E+00    0.18612E+02  0.22303E+02 -0.40915E+02  0.45427E+01 -0.47591E+01  0.13985E+02      982.00
  0.79397E+00  0.67138E+02    0.45000E+00  0.45000E+00 -0.90000E+00  0.00000E+00  0.00000E+00  0.00000E+00    0.18701E+02  0.22323E+02 -0.41023E+02  0.45194E+01 -0.47428E+01  0.13933E+02      982.00
  0.81688E+00  0.67236E+02    0.46250E+00  0.46250E+00 -0.92500E+00  0.00000E+00  0.00000E+00  0.00000E+00    0.18784E+02  0.22341E+02 -0.41125E+02  0.44948E+01 -0.47263E+01  0.13884E+02      982.00
  0.83982E+00  0.67330E+02    0.47500E+00  0.47500E+00 -0.95000E+00  0.00000E+00  0.00000E+00  0.00000E+00    0.18865E+02  0.22357E+02 -0.41222E+02  0.44695E+01 -0.47089E+01  0.13837E+02      982.00
  0.86278E+00  0.67417E+02    0.48750E+00  0.48750E+00 -0.97500E+00  0.00000E+00  0.00000E+00  0.00000E+00    0.18941E+02  0.22373E+02 -0.41313E+02  0.44460E+01 -0.46920E+01  0.13791E+02      982.00
  0.88576E+00  0.67498E+02    0.50000E+00  0.50000E+00 -0.10000E+01  0.00000E+00  0.00000E+00  0.00000E+00    0.19005E+02  0.22392E+02 -0.41397E+02  0.44278E+01 -0.46789E+01  0.13747E+02      982.00
