          Evm          Svm            E11          E22          E33          E23          E13          E12         SDEV11       SDEV22       SDEV33       SDEV23       SDEV13       SDEV12      TEMP
  0.00000E+00  0.55464E+02    0.00000E+00  0.00000E+00  0.00000E+00  0.00000E+00  0.00000E+00  0.00000E+00    0.17826E+02  0.14970E+02 -0.32797E+02 -0.96010E+00  0.45841E+01  0.13954E+02      982.00
  0.22174E-01  0.55359E+02    0.12500E-01  0.12500E-01 -0.25000E-01  0.00000E+00  0.00000E+00  0.00000E+00    0.17849E+02  0.14933E+02 -0.32781E+02 -0.12361E+01  0.44178E+01  0.13871E+02      982.00
  0.44380E-01  0.55321E+02    0.25000E-01  0.25000E-01 -0.50000E-01  0.00000E+00  0.00000E+00  0.00000E+00    0.17861E+02  0.14933E+02 -0.32794E+02 -0.14348E+01  0.42457E+01  0.13833E+02      982.00
  0.66610E-01  0.55429E+02    0.37500E-01  0.37500E-01 -0.75000E-01  0.00000E+00  0.00000E+00  0.00000E+00    0.17905E+02  0.14959E+02 -0.32864E+02 -0.15944E+01  0.40836E+01  0.13883E+02      982.00
  0.88843E-01  0.55689E+02    0.50000E-01  0.50000E-01 -0.10000E+00  0.00000E+00  0.00000E+00  0.00000E+00    0.17985E+02  0.15014E+02 -0.32999E+02 -0.17232E+01  0.39345E+01  0.14013E+02      982.00
  0.11106E+00  0.56038E+02    0.62500E-01  0.62500E-01 -0.12500E+00  0.00000E+00  0.00000E+00  0.00000E+00    0.18090E+02  0.15081E+02 -0.33171E+02 -0.18337E+01  0.37925E+01  0.14196E+02      982.00
  0.13326E+00  0.56471E+02    0.75000E-01  0.75000E-01 -0.15000E+00  0.00000E+00  0.00000E+00  0.00000E+00    0.18212E+02  0.15165E+02 -0.33377E+02 -0.19261E+01  0.36673E+01  0.14421E+02      982.00
  0.15543E+00  0.56954E+02    0.87500E-01  0.87500E-01 -0.17500E+00  0.00000E+00  0.00000E+00  0.00000E+00    0.18344E+02  0.15262E+02 -0.33606E+02 -0.20041E+01  0.35557E+01  0.14669E+02      982.00
  0.17755E+00  0.57470E+02    0.10000E+00  0.10000E+00 -0.20000E+00  0.00000E+00  0.00000E+00  0.00000E+00    0.18479E+02  0.15370E+02 -0.33848E+02 -0.20707E+01  0.34580E+01  0.14932E+02      982.00
  0.19964E+00  0.57999E+02    0.11250E+00  0.11250E+00 -0.22500E+00  0.00000E+00  0.00000E+00  0.00000E+00    0.18610E+02  0.15486E+02 -0.34096E+02 -0.21275E+01  0.33726E+01  0.15199E+02      982.00
  0.22169E+00  0.58527E+02    0.12500E+00  0.12500E+00 -0.25000E+00  0.00000E+00  0.00000E+00  0.00000E+00    0.18735E+02  0.15610E+02 -0.34344E+02 -0.21762E+01  0.32974E+01  0.15463E+02      982.00
  0.24369E+00  0.59043E+02    0.13750E+00  0.13750E+00 -0.27500E+00  0.00000E+00  0.00000E+00  0.00000E+00    0.18849E+02  0.15739E+02 -0.34587E+02 -0.22183E+01  0.32300E+01  0.15718E+02      982.00
  0.26566E+00  0.59520E+02    0.15000E+00  0.15000E+00 -0.30000E+00  0.00000E+00  0.00000E+00  0.00000E+00    0.18942E+02  0.15871E+02 -0.34814E+02 -0.22578E+01  0.31571E+01  0.15952E+02      982.00
  0.28759E+00  0.60012E+02    0.16250E+00  0.16250E+00 -0.32500E+00  0.00000E+00  0.00000E+00  0.00000E+00    0.19038E+02  0.16008E+02 -0.35046E+02 -0.22893E+01  0.31081E+01  0.16190E+02      982.00
  0.30949E+00  0.60457E+02    0.17500E+00  0.17500E+00 -0.35000E+00  0.00000E+00  0.00000E+00  0.00000E+00    0.19112E+02  0.16146E+02 -0.35259E+02 -0.23205E+01  0.30497E+01  0.16405E+02      982.00
  0.33136E+00  0.60874E+02    0.18750E+00  0.18750E+00 -0.37500E+00  0.00000E+00  0.00000E+00  0.00000E+00    0.19173E+02  0.16286E+02 -0.35458E+02 -0.23503E+01  0.29905E+01  0.16604E+02      982.00
  0.35321E+00  0.61261E+02    0.20000E+00  0.20000E+00 -0.40000E+00  0.00000E+00  0.00000E+00  0.00000E+00    0.19220E+02  0.16426E+02 -0.35646E+02 -0.23789E+01  0.29299E+01  0.16787E+02      982.00
  0.37503E+00  0.61620E+02    0.21250E+00  0.21250E+00 -0.42500E+00  0.00000E+00  0.00000E+00  0.00000E+00    0.19256E+02  0.16565E+02 -0.35821E+02 -0.24064E+01  0.28677E+01  0.16956E+02      982.00
  0.39682E+00  0.61943E+02    0.22500E+00  0.22500E+00 -0.45000E+00  0.00000E+00  0.00000E+00  0.00000E+00    0.19274E+02  0.16707E+02 -0.35981E+02 -0.24355E+01  0.27975E+01  0.17106E+02      982.00
  0.41861E+00  0.62250E+02    0.23750E+00  0.23750E+00 -0.47500E+00  0.00000E+00  0.00000E+00  0.00000E+00    0.19291E+02  0.16843E+02 -0.36134E+02 -0.24596E+01  0.27335E+01  0.17246E+02      982.00
  0.44037E+00  0.62534E+02    0.25000E+00  0.25000E+00 -0.50000E+00  0.00000E+00  0.00000E+00  0.00000E+00    0.19301E+02  0.16976E+02 -0.36277E+02 -0.24809E+01  0.26706E+01  0.17374E+02      982.00
  0.46213E+00  0.62796E+02    0.26250E+00  0.26250E+00 -0.52500E+00  0.00000E+00  0.00000E+00  0.00000E+00    0.19307E+02  0.17105E+02 -0.36411E+02 -0.24988E+01  0.26092E+01  0.17489E+02      982.00
  0.48387E+00  0.63038E+02    0.27500E+00  0.27500E+00 -0.55000E+00  0.00000E+00  0.00000E+00  0.00000E+00    0.19308E+02  0.17229E+02 -0.36537E+02 -0.25129E+01  0.25501E+01  0.17592E+02      982.00
  0.50561E+00  0.63250E+02    0.28750E+00  0.28750E+00 -0.57500E+00  0.00000E+00  0.00000E+00  0.00000E+00    0.19301E+02  0.17351E+02 -0.36652E+02 -0.25237E+01  0.24879E+01  0.17677E+02      982.00
  0.52734E+00  0.63458E+02    0.30000E+00  0.30000E+00 -0.60000E+00  0.00000E+00  0.00000E+00  0.00000E+00    0.19300E+02  0.17465E+02 -0.36764E+02 -0.25299E+01  0.24354E+01  0.17760E+02      982.00
  0.54906E+00  0.63649E+02    0.31250E+00  0.31250E+00 -0.62500E+00  0.00000E+00  0.00000E+00  0.00000E+00    0.19297E+02  0.17572E+02 -0.36869E+02 -0.25319E+01  0.23868E+01  0.17834E+02      982.00
  0.57079E+00  0.63825E+02    0.32500E+00  0.32500E+00 -0.65000E+00  0.00000E+00  0.00000E+00  0.00000E+00    0.19295E+02  0.17673E+02 -0.36968E+02 -0.25303E+01  0.23417E+01  0.17899E+02      982.00
  0.59251E+00  0.63970E+02    0.33750E+00  0.33750E+00 -0.67500E+00  0.00000E+00  0.00000E+00  0.00000E+00    0.19280E+02  0.17770E+02 -0.37051E+02 -0.25269E+01  0.22916E+01  0.17952E+02      982.00
  0.61423E+00  0.64122E+02    0.35000E+00  0.35000E+00 -0.70000E+00  0.00000E+00  0.00000E+00  0.00000E+00    0.19280E+02  0.17860E+02 -0.37139E+02 -0.25192E+01  0.22533E+01  0.18003E+02      982.00
  0.63595E+00  0.64262E+02    0.36250E+00  0.36250E+00 -0.72500E+00  0.00000E+00  0.00000E+00  0.00000E+00    0.19280E+02  0.17943E+02 -0.37223E+02 -0.25085E+01  0.22187E+01  0.18048E+02      982.00
  0.65767E+00  0.64392E+02    0.37500E+00  0.37500E+00 -0.75000E+00  0.00000E+00  0.00000E+00  0.00000E+00    0.19282E+02  0.18020E+02 -0.37302E+02 -0.24959E+01  0.21870E+01  0.18087E+02      982.00
  0.67939E+00  0.64503E+02    0.38750E+00  0.38750E+00 -0.77500E+00  0.00000E+00  0.00000E+00  0.00000E+00    0.19274E+02  0.18095E+02 -0.37369E+02 -0.24803E+01  0.21490E+01  0.18122E+02      982.00
  0.70112E+00  0.64615E+02    0.40000E+00  0.40000E+00 -0.80000E+00  0.00000E+00  0.00000E+00  0.00000E+00    0.19278E+02  0.18161E+02 -0.37440E+02 -0.24651E+01  0.21215E+01  0.18152E+02      982.00
  0.72284E+00  0.64717E+02    0.41250E+00  0.41250E+00 -0.82500E+00  0.00000E+00  0.00000E+00  0.00000E+00    0.19284E+02  0.18221E+02 -0.37506E+02 -0.24487E+01  0.20969E+01  0.18178E+02      982.00
  0.74458E+00  0.64812E+02    0.42500E+00  0.42500E+00 -0.85000E+00  0.00000E+00  0.00000E+00  0.00000E+00    0.19291E+02  0.18277E+02 -0.37568E+02 -0.24318E+01  0.20742E+01  0.18200E+02      982.00
  0.76631E+00  0.64900E+02    0.43750E+00  0.43750E+00 -0.87500E+00  0.00000E+00  0.00000E+00  0.00000E+00    0.19299E+02  0.18327E+02 -0.37626E+02 -0.24147E+01  0.20530E+01  0.18219E+02      982.00
  0.78805E+00  0.64982E+02    0.45000E+00  0.45000E+00 -0.90000E+00  0.00000E+00  0.00000E+00  0.00000E+00    0.19308E+02  0.18373E+02 -0.37681E+02 -0.23977E+01  0.20333E+01  0.18235E+02      982.00
  0.80980E+00  0.65057E+02    0.46250E+00  0.46250E+00 -0.92500E+00  0.00000E+00  0.00000E+00  0.00000E+00    0.19318E+02  0.18415E+02 -0.37733E+02 -0.23810E+01  0.20147E+01  0.18250E+02      982.00
  0.83155E+00  0.65127E+02    0.47500E+00  0.47500E+00 -0.95000E+00  0.00000E+00  0.00000E+00  0.00000E+00    0.19328E+02  0.18453E+02 -0.37782E+02 -0.23647E+01  0.19972E+01  0.18262E+02      982.00
  0.85330E+00  0.65193E+02    0.48750E+00  0.48750E+00 -0.97500E+00  0.00000E+00  0.00000E+00  0.00000E+00    0.19336E+02  0.18491E+02 -0.37828E+02 -0.23426E+01  0.19729E+01  0.18275E+02      982.00
  0.87506E+00  0.65253E+02    0.50000E+00  0.50000E+00 -0.10000E+01  0.00000E+00  0.00000E+00  0.00000E+00    0.19352E+02  0.18519E+02 -0.37871E+02 -0.23330E+01  0.19640E+01  0.18281E+02      982.00
