          Evm          Svm            E11          E22          E33          E23          E13          E12         SDEV11       SDEV22       SDEV33       SDEV23       SDEV13       SDEV12      TEMP
  0.00000E+00  0.60697E+02    0.00000E+00  0.00000E+00  0.00000E+00  0.00000E+00  0.00000E+00  0.00000E+00    0.17506E+02  0.17540E+02 -0.35047E+02 -0.30067E+01  0.30303E+01  0.16989E+02      982.00
  0.21653E-01  0.60737E+02    0.12500E-01  0.12500E-01 -0.25000E-01  0.00000E+00  0.00000E+00  0.00000E+00    0.17442E+02  0.17520E+02 -0.34962E+02 -0.29185E+01  0.29434E+01  0.17197E+02      982.00
  0.43239E-01  0.60839E+02    0.25000E-01  0.25000E-01 -0.50000E-01  0.00000E+00  0.00000E+00  0.00000E+00    0.17407E+02  0.17496E+02 -0.34903E+02 -0.28357E+01  0.28608E+01  0.17433E+02      982.00
  0.64752E-01  0.60967E+02    0.37500E-01  0.37500E-01 -0.75000E-01  0.00000E+00  0.00000E+00  0.00000E+00    0.17379E+02  0.17475E+02 -0.34854E+02 -0.27412E+01  0.27662E+01  0.17684E+02      982.00
  0.86190E-01  0.61118E+02    0.50000E-01  0.50000E-01 -0.10000E+00  0.00000E+00  0.00000E+00  0.00000E+00    0.17357E+02  0.17459E+02 -0.34816E+02 -0.26443E+01  0.26693E+01  0.17942E+02      982.00
  0.10755E+00  0.61301E+02    0.62500E-01  0.62500E-01 -0.12500E+00  0.00000E+00  0.00000E+00  0.00000E+00    0.17343E+02  0.17450E+02 -0.34793E+02 -0.25262E+01  0.25515E+01  0.18215E+02      982.00
  0.12884E+00  0.61510E+02    0.75000E-01  0.75000E-01 -0.15000E+00  0.00000E+00  0.00000E+00  0.00000E+00    0.17336E+02  0.17449E+02 -0.34785E+02 -0.24016E+01  0.24262E+01  0.18494E+02      982.00
  0.15004E+00  0.61716E+02    0.87500E-01  0.87500E-01 -0.17500E+00  0.00000E+00  0.00000E+00  0.00000E+00    0.17330E+02  0.17448E+02 -0.34778E+02 -0.22511E+01  0.22761E+01  0.18768E+02      982.00
  0.17117E+00  0.61929E+02    0.10000E+00  0.10000E+00 -0.20000E+00  0.00000E+00  0.00000E+00  0.00000E+00    0.17329E+02  0.17451E+02 -0.34780E+02 -0.20789E+01  0.21038E+01  0.19037E+02      982.00
  0.19224E+00  0.62137E+02    0.11250E+00  0.11250E+00 -0.22500E+00  0.00000E+00  0.00000E+00  0.00000E+00    0.17331E+02  0.17455E+02 -0.34786E+02 -0.18899E+01  0.19139E+01  0.19293E+02      982.00
  0.21323E+00  0.62331E+02    0.12500E+00  0.12500E+00 -0.25000E+00  0.00000E+00  0.00000E+00  0.00000E+00    0.17334E+02  0.17459E+02 -0.34793E+02 -0.16644E+01  0.16880E+01  0.19532E+02      982.00
  0.23416E+00  0.62503E+02    0.13750E+00  0.13750E+00 -0.27500E+00  0.00000E+00  0.00000E+00  0.00000E+00    0.17337E+02  0.17460E+02 -0.34797E+02 -0.14150E+01  0.14379E+01  0.19748E+02      982.00
  0.25504E+00  0.62653E+02    0.15000E+00  0.15000E+00 -0.30000E+00  0.00000E+00  0.00000E+00  0.00000E+00    0.17342E+02  0.17461E+02 -0.34803E+02 -0.11318E+01  0.11536E+01  0.19935E+02      982.00
  0.27587E+00  0.62800E+02    0.16250E+00  0.16250E+00 -0.32500E+00  0.00000E+00  0.00000E+00  0.00000E+00    0.17354E+02  0.17467E+02 -0.34821E+02 -0.81897E+00  0.83940E+00  0.20096E+02      982.00
  0.29666E+00  0.62933E+02    0.17500E+00  0.17500E+00 -0.35000E+00  0.00000E+00  0.00000E+00  0.00000E+00    0.17371E+02  0.17474E+02 -0.34845E+02 -0.47787E+00  0.49693E+00  0.20225E+02      982.00
  0.31743E+00  0.63073E+02    0.18750E+00  0.18750E+00 -0.37500E+00  0.00000E+00  0.00000E+00  0.00000E+00    0.17398E+02  0.17489E+02 -0.34888E+02 -0.12443E+00  0.14173E+00  0.20327E+02      982.00
  0.33817E+00  0.63215E+02    0.20000E+00  0.20000E+00 -0.40000E+00  0.00000E+00  0.00000E+00  0.00000E+00    0.17435E+02  0.17511E+02 -0.34946E+02  0.22956E+00 -0.21429E+00  0.20397E+02      982.00
  0.35890E+00  0.63365E+02    0.21250E+00  0.21250E+00 -0.42500E+00  0.00000E+00  0.00000E+00  0.00000E+00    0.17482E+02  0.17543E+02 -0.35025E+02  0.57461E+00 -0.56161E+00  0.20437E+02      982.00
  0.37963E+00  0.63513E+02    0.22500E+00  0.22500E+00 -0.45000E+00  0.00000E+00  0.00000E+00  0.00000E+00    0.17537E+02  0.17580E+02 -0.35116E+02  0.90403E+00 -0.89348E+00  0.20448E+02      982.00
  0.40036E+00  0.63670E+02    0.23750E+00  0.23750E+00 -0.47500E+00  0.00000E+00  0.00000E+00  0.00000E+00    0.17602E+02  0.17626E+02 -0.35228E+02  0.12169E+01 -0.12089E+01  0.20434E+02      982.00
  0.42111E+00  0.63828E+02    0.25000E+00  0.25000E+00 -0.50000E+00  0.00000E+00  0.00000E+00  0.00000E+00    0.17675E+02  0.17681E+02 -0.35356E+02  0.15005E+01 -0.14950E+01  0.20396E+02      982.00
  0.44188E+00  0.63992E+02    0.26250E+00  0.26250E+00 -0.52500E+00  0.00000E+00  0.00000E+00  0.00000E+00    0.17756E+02  0.17742E+02 -0.35498E+02  0.17656E+01 -0.17630E+01  0.20339E+02      982.00
  0.46268E+00  0.64152E+02    0.27500E+00  0.27500E+00 -0.55000E+00  0.00000E+00  0.00000E+00  0.00000E+00    0.17843E+02  0.17810E+02 -0.35653E+02  0.20015E+01 -0.20012E+01  0.20260E+02      982.00
  0.48352E+00  0.64331E+02    0.28750E+00  0.28750E+00 -0.57500E+00  0.00000E+00  0.00000E+00  0.00000E+00    0.17941E+02  0.17886E+02 -0.35827E+02  0.22216E+01 -0.22246E+01  0.20173E+02      982.00
  0.50441E+00  0.64499E+02    0.30000E+00  0.30000E+00 -0.60000E+00  0.00000E+00  0.00000E+00  0.00000E+00    0.18040E+02  0.17966E+02 -0.36006E+02  0.24152E+01 -0.24206E+01  0.20066E+02      982.00
  0.52534E+00  0.64672E+02    0.31250E+00  0.31250E+00 -0.62500E+00  0.00000E+00  0.00000E+00  0.00000E+00    0.18146E+02  0.18050E+02 -0.36197E+02  0.25958E+01 -0.26042E+01  0.19949E+02      982.00
  0.54633E+00  0.64838E+02    0.32500E+00  0.32500E+00 -0.65000E+00  0.00000E+00  0.00000E+00  0.00000E+00    0.18254E+02  0.18138E+02 -0.36391E+02  0.27534E+01 -0.27644E+01  0.19820E+02      982.00
  0.56738E+00  0.65002E+02    0.33750E+00  0.33750E+00 -0.67500E+00  0.00000E+00  0.00000E+00  0.00000E+00    0.18363E+02  0.18225E+02 -0.36589E+02  0.29028E+01 -0.29166E+01  0.19683E+02      982.00
  0.58849E+00  0.65161E+02    0.35000E+00  0.35000E+00 -0.70000E+00  0.00000E+00  0.00000E+00  0.00000E+00    0.18474E+02  0.18316E+02 -0.36791E+02  0.30305E+01 -0.30472E+01  0.19536E+02      982.00
  0.60966E+00  0.65320E+02    0.36250E+00  0.36250E+00 -0.72500E+00  0.00000E+00  0.00000E+00  0.00000E+00    0.18588E+02  0.18410E+02 -0.36998E+02  0.31459E+01 -0.31649E+01  0.19383E+02      982.00
  0.63090E+00  0.65477E+02    0.37500E+00  0.37500E+00 -0.75000E+00  0.00000E+00  0.00000E+00  0.00000E+00    0.18702E+02  0.18504E+02 -0.37206E+02  0.32494E+01 -0.32713E+01  0.19225E+02      982.00
  0.65221E+00  0.65631E+02    0.38750E+00  0.38750E+00 -0.77500E+00  0.00000E+00  0.00000E+00  0.00000E+00    0.18815E+02  0.18595E+02 -0.37409E+02  0.33511E+01 -0.33749E+01  0.19068E+02      982.00
  0.67358E+00  0.65779E+02    0.40000E+00  0.40000E+00 -0.80000E+00  0.00000E+00  0.00000E+00  0.00000E+00    0.18929E+02  0.18689E+02 -0.37618E+02  0.34342E+01 -0.34603E+01  0.18900E+02      982.00
  0.69503E+00  0.65930E+02    0.41250E+00  0.41250E+00 -0.82500E+00  0.00000E+00  0.00000E+00  0.00000E+00    0.19043E+02  0.18784E+02 -0.37827E+02  0.35080E+01 -0.35368E+01  0.18733E+02      982.00
  0.71655E+00  0.66069E+02    0.42500E+00  0.42500E+00 -0.85000E+00  0.00000E+00  0.00000E+00  0.00000E+00    0.19155E+02  0.18876E+02 -0.38031E+02  0.35735E+01 -0.36046E+01  0.18560E+02      982.00
  0.73813E+00  0.66208E+02    0.43750E+00  0.43750E+00 -0.87500E+00  0.00000E+00  0.00000E+00  0.00000E+00    0.19265E+02  0.18968E+02 -0.38233E+02  0.36316E+01 -0.36643E+01  0.18390E+02      982.00
  0.75979E+00  0.66347E+02    0.45000E+00  0.45000E+00 -0.90000E+00  0.00000E+00  0.00000E+00  0.00000E+00    0.19375E+02  0.19055E+02 -0.38431E+02  0.36906E+01 -0.37270E+01  0.18224E+02      982.00
  0.78151E+00  0.66476E+02    0.46250E+00  0.46250E+00 -0.92500E+00  0.00000E+00  0.00000E+00  0.00000E+00    0.19482E+02  0.19143E+02 -0.38625E+02  0.37350E+01 -0.37729E+01  0.18052E+02      982.00
  0.80330E+00  0.66600E+02    0.47500E+00  0.47500E+00 -0.95000E+00  0.00000E+00  0.00000E+00  0.00000E+00    0.19586E+02  0.19230E+02 -0.38816E+02  0.37721E+01 -0.38117E+01  0.17881E+02      982.00
  0.82515E+00  0.66726E+02    0.48750E+00  0.48750E+00 -0.97500E+00  0.00000E+00  0.00000E+00  0.00000E+00    0.19689E+02  0.19315E+02 -0.39004E+02  0.38039E+01 -0.38450E+01  0.17716E+02      982.00
  0.84707E+00  0.66843E+02    0.50000E+00  0.50000E+00 -0.10000E+01  0.00000E+00  0.00000E+00  0.00000E+00    0.19788E+02  0.19396E+02 -0.39184E+02  0.38307E+01 -0.38741E+01  0.17552E+02      982.00
