          Evm          Svm            E11          E22          E33          E23          E13          E12         SDEV11       SDEV22       SDEV33       SDEV23       SDEV13       SDEV12      TEMP
  0.00000E+00  0.61823E+02    0.00000E+00  0.00000E+00  0.00000E+00  0.00000E+00  0.00000E+00  0.00000E+00    0.14899E+02  0.23680E+02 -0.38579E+02 -0.31177E+01 -0.59324E+01 -0.96733E+01      982.00
  0.23401E-01  0.62014E+02    0.12500E-01  0.12500E-01 -0.25000E-01  0.00000E+00  0.00000E+00  0.00000E+00    0.15012E+02  0.23776E+02 -0.38788E+02 -0.31246E+01 -0.58501E+01 -0.95060E+01      982.00
  0.46856E-01  0.62017E+02    0.25000E-01  0.25000E-01 -0.50000E-01  0.00000E+00  0.00000E+00  0.00000E+00    0.15158E+02  0.23742E+02 -0.38900E+02 -0.31180E+01 -0.57278E+01 -0.92824E+01      982.00
  0.70378E-01  0.61986E+02    0.37500E-01  0.37500E-01 -0.75000E-01  0.00000E+00  0.00000E+00  0.00000E+00    0.15225E+02  0.23763E+02 -0.38988E+02 -0.32535E+01 -0.55172E+01 -0.90255E+01      982.00
  0.93965E-01  0.62052E+02    0.50000E-01  0.50000E-01 -0.10000E+00  0.00000E+00  0.00000E+00  0.00000E+00    0.15247E+02  0.23868E+02 -0.39115E+02 -0.34899E+01 -0.52794E+01 -0.87934E+01      982.00
  0.11760E+00  0.62197E+02    0.62500E-01  0.62500E-01 -0.12500E+00  0.00000E+00  0.00000E+00  0.00000E+00    0.15240E+02  0.24029E+02 -0.39269E+02 -0.37484E+01 -0.50623E+01 -0.85995E+01      982.00
  0.14128E+00  0.62406E+02    0.75000E-01  0.75000E-01 -0.15000E+00  0.00000E+00  0.00000E+00  0.00000E+00    0.15227E+02  0.24219E+02 -0.39446E+02 -0.39788E+01 -0.48807E+01 -0.84440E+01      982.00
  0.16498E+00  0.62660E+02    0.87500E-01  0.87500E-01 -0.17500E+00  0.00000E+00  0.00000E+00  0.00000E+00    0.15207E+02  0.24432E+02 -0.39639E+02 -0.41664E+01 -0.47309E+01 -0.83247E+01      982.00
  0.18871E+00  0.62951E+02    0.10000E+00  0.10000E+00 -0.20000E+00  0.00000E+00  0.00000E+00  0.00000E+00    0.15192E+02  0.24655E+02 -0.39847E+02 -0.43055E+01 -0.46153E+01 -0.82413E+01      982.00
  0.21244E+00  0.63268E+02    0.11250E+00  0.11250E+00 -0.22500E+00  0.00000E+00  0.00000E+00  0.00000E+00    0.15172E+02  0.24891E+02 -0.40063E+02 -0.44044E+01 -0.45219E+01 -0.81860E+01      982.00
  0.23619E+00  0.63608E+02    0.12500E+00  0.12500E+00 -0.25000E+00  0.00000E+00  0.00000E+00  0.00000E+00    0.15158E+02  0.25133E+02 -0.40292E+02 -0.44674E+01 -0.44492E+01 -0.81512E+01      982.00
  0.25994E+00  0.63965E+02    0.13750E+00  0.13750E+00 -0.27500E+00  0.00000E+00  0.00000E+00  0.00000E+00    0.15148E+02  0.25381E+02 -0.40528E+02 -0.45026E+01 -0.43931E+01 -0.81339E+01      982.00
  0.28370E+00  0.64323E+02    0.15000E+00  0.15000E+00 -0.30000E+00  0.00000E+00  0.00000E+00  0.00000E+00    0.15145E+02  0.25619E+02 -0.40764E+02 -0.45138E+01 -0.43558E+01 -0.81285E+01      982.00
  0.30747E+00  0.64683E+02    0.16250E+00  0.16250E+00 -0.32500E+00  0.00000E+00  0.00000E+00  0.00000E+00    0.15142E+02  0.25859E+02 -0.41002E+02 -0.45094E+01 -0.43241E+01 -0.81272E+01      982.00
  0.33124E+00  0.65020E+02    0.17500E+00  0.17500E+00 -0.35000E+00  0.00000E+00  0.00000E+00  0.00000E+00    0.15140E+02  0.26083E+02 -0.41224E+02 -0.44917E+01 -0.43013E+01 -0.81271E+01      982.00
  0.35501E+00  0.65357E+02    0.18750E+00  0.18750E+00 -0.37500E+00  0.00000E+00  0.00000E+00  0.00000E+00    0.15146E+02  0.26301E+02 -0.41447E+02 -0.44638E+01 -0.42850E+01 -0.81260E+01      982.00
  0.37880E+00  0.65685E+02    0.20000E+00  0.20000E+00 -0.40000E+00  0.00000E+00  0.00000E+00  0.00000E+00    0.15158E+02  0.26507E+02 -0.41665E+02 -0.44300E+01 -0.42809E+01 -0.81268E+01      982.00
  0.40258E+00  0.65982E+02    0.21250E+00  0.21250E+00 -0.42500E+00  0.00000E+00  0.00000E+00  0.00000E+00    0.15164E+02  0.26699E+02 -0.41863E+02 -0.43932E+01 -0.42754E+01 -0.81244E+01      982.00
  0.42637E+00  0.66274E+02    0.22500E+00  0.22500E+00 -0.45000E+00  0.00000E+00  0.00000E+00  0.00000E+00    0.15179E+02  0.26879E+02 -0.42058E+02 -0.43516E+01 -0.42788E+01 -0.81188E+01      982.00
  0.45017E+00  0.66538E+02    0.23750E+00  0.23750E+00 -0.47500E+00  0.00000E+00  0.00000E+00  0.00000E+00    0.15186E+02  0.27050E+02 -0.42236E+02 -0.43116E+01 -0.42808E+01 -0.81097E+01      982.00
  0.47398E+00  0.66794E+02    0.25000E+00  0.25000E+00 -0.50000E+00  0.00000E+00  0.00000E+00  0.00000E+00    0.15192E+02  0.27217E+02 -0.42409E+02 -0.42689E+01 -0.42854E+01 -0.80941E+01      982.00
  0.49779E+00  0.67028E+02    0.26250E+00  0.26250E+00 -0.52500E+00  0.00000E+00  0.00000E+00  0.00000E+00    0.15207E+02  0.27363E+02 -0.42569E+02 -0.42254E+01 -0.42946E+01 -0.80772E+01      982.00
  0.52160E+00  0.67257E+02    0.27500E+00  0.27500E+00 -0.55000E+00  0.00000E+00  0.00000E+00  0.00000E+00    0.15214E+02  0.27514E+02 -0.42728E+02 -0.41774E+01 -0.43043E+01 -0.80495E+01      982.00
  0.54543E+00  0.67461E+02    0.28750E+00  0.28750E+00 -0.57500E+00  0.00000E+00  0.00000E+00  0.00000E+00    0.15228E+02  0.27642E+02 -0.42870E+02 -0.41330E+01 -0.43133E+01 -0.80265E+01      982.00
  0.56926E+00  0.67654E+02    0.30000E+00  0.30000E+00 -0.60000E+00  0.00000E+00  0.00000E+00  0.00000E+00    0.15242E+02  0.27763E+02 -0.43005E+02 -0.40891E+01 -0.43228E+01 -0.80018E+01      982.00
  0.59309E+00  0.67830E+02    0.31250E+00  0.31250E+00 -0.62500E+00  0.00000E+00  0.00000E+00  0.00000E+00    0.15253E+02  0.27875E+02 -0.43128E+02 -0.40468E+01 -0.43328E+01 -0.79754E+01      982.00
  0.61694E+00  0.68002E+02    0.32500E+00  0.32500E+00 -0.65000E+00  0.00000E+00  0.00000E+00  0.00000E+00    0.15256E+02  0.27996E+02 -0.43252E+02 -0.39937E+01 -0.43443E+01 -0.79352E+01      982.00
  0.64079E+00  0.68151E+02    0.33750E+00  0.33750E+00 -0.67500E+00  0.00000E+00  0.00000E+00  0.00000E+00    0.15263E+02  0.28096E+02 -0.43359E+02 -0.39515E+01 -0.43515E+01 -0.79050E+01      982.00
  0.66465E+00  0.68272E+02    0.35000E+00  0.35000E+00 -0.70000E+00  0.00000E+00  0.00000E+00  0.00000E+00    0.15266E+02  0.28176E+02 -0.43442E+02 -0.39245E+01 -0.43608E+01 -0.78846E+01      982.00
  0.68851E+00  0.68398E+02    0.36250E+00  0.36250E+00 -0.72500E+00  0.00000E+00  0.00000E+00  0.00000E+00    0.15270E+02  0.28263E+02 -0.43533E+02 -0.38848E+01 -0.43693E+01 -0.78547E+01      982.00
  0.71238E+00  0.68514E+02    0.37500E+00  0.37500E+00 -0.75000E+00  0.00000E+00  0.00000E+00  0.00000E+00    0.15272E+02  0.28345E+02 -0.43617E+02 -0.38461E+01 -0.43766E+01 -0.78234E+01      982.00
  0.73625E+00  0.68625E+02    0.38750E+00  0.38750E+00 -0.77500E+00  0.00000E+00  0.00000E+00  0.00000E+00    0.15272E+02  0.28425E+02 -0.43697E+02 -0.38088E+01 -0.43839E+01 -0.77920E+01      982.00
  0.76013E+00  0.68725E+02    0.40000E+00  0.40000E+00 -0.80000E+00  0.00000E+00  0.00000E+00  0.00000E+00    0.15271E+02  0.28499E+02 -0.43770E+02 -0.37722E+01 -0.43906E+01 -0.77613E+01      982.00
  0.78401E+00  0.68818E+02    0.41250E+00  0.41250E+00 -0.82500E+00  0.00000E+00  0.00000E+00  0.00000E+00    0.15267E+02  0.28571E+02 -0.43838E+02 -0.37366E+01 -0.43964E+01 -0.77309E+01      982.00
  0.80790E+00  0.68906E+02    0.42500E+00  0.42500E+00 -0.85000E+00  0.00000E+00  0.00000E+00  0.00000E+00    0.15261E+02  0.28641E+02 -0.43902E+02 -0.37027E+01 -0.44019E+01 -0.77004E+01      982.00
  0.83179E+00  0.68987E+02    0.43750E+00  0.43750E+00 -0.87500E+00  0.00000E+00  0.00000E+00  0.00000E+00    0.15256E+02  0.28706E+02 -0.43961E+02 -0.36680E+01 -0.44080E+01 -0.76702E+01      982.00
  0.85569E+00  0.69060E+02    0.45000E+00  0.45000E+00 -0.90000E+00  0.00000E+00  0.00000E+00  0.00000E+00    0.15247E+02  0.28768E+02 -0.44015E+02 -0.36356E+01 -0.44140E+01 -0.76408E+01      982.00
  0.87959E+00  0.69125E+02    0.46250E+00  0.46250E+00 -0.92500E+00  0.00000E+00  0.00000E+00  0.00000E+00    0.15237E+02  0.28826E+02 -0.44063E+02 -0.36032E+01 -0.44188E+01 -0.76104E+01      982.00
  0.90349E+00  0.69139E+02    0.47500E+00  0.47500E+00 -0.95000E+00  0.00000E+00  0.00000E+00  0.00000E+00    0.15230E+02  0.28851E+02 -0.44081E+02 -0.35592E+01 -0.44093E+01 -0.75870E+01      982.00
  0.92740E+00  0.69151E+02    0.48750E+00  0.48750E+00 -0.97500E+00  0.00000E+00  0.00000E+00  0.00000E+00    0.15216E+02  0.28882E+02 -0.44098E+02 -0.35165E+01 -0.44006E+01 -0.75533E+01      982.00
  0.95131E+00  0.69156E+02    0.50000E+00  0.50000E+00 -0.10000E+01  0.00000E+00  0.00000E+00  0.00000E+00    0.15201E+02  0.28910E+02 -0.44110E+02 -0.34744E+01 -0.43934E+01 -0.75202E+01      982.00
