          Evm          Svm            E11          E22          E33          E23          E13          E12         SDEV11       SDEV22       SDEV33       SDEV23       SDEV13       SDEV12      TEMP
  0.00000E+00  0.55770E+02    0.00000E+00  0.00000E+00  0.00000E+00  0.00000E+00  0.00000E+00  0.00000E+00    0.14812E+02  0.18972E+02 -0.33784E+02 -0.49338E+01  0.13209E+01  0.12262E+02      982.00
  0.22716E-01  0.55753E+02    0.12500E-01  0.12500E-01 -0.25000E-01  0.00000E+00  0.00000E+00  0.00000E+00    0.15194E+02  0.18597E+02 -0.33791E+02 -0.44886E+01  0.14843E+01  0.12431E+02      982.00
  0.45444E-01  0.55831E+02    0.25000E-01  0.25000E-01 -0.50000E-01  0.00000E+00  0.00000E+00  0.00000E+00    0.15535E+02  0.18295E+02 -0.33830E+02 -0.41254E+01  0.16012E+01  0.12618E+02      982.00
  0.68166E-01  0.56023E+02    0.37500E-01  0.37500E-01 -0.75000E-01  0.00000E+00  0.00000E+00  0.00000E+00    0.15824E+02  0.18085E+02 -0.33909E+02 -0.38200E+01  0.16836E+01  0.12851E+02      982.00
  0.90864E-01  0.56342E+02    0.50000E-01  0.50000E-01 -0.10000E+00  0.00000E+00  0.00000E+00  0.00000E+00    0.16068E+02  0.17971E+02 -0.34039E+02 -0.35621E+01  0.17411E+01  0.13134E+02      982.00
  0.11352E+00  0.56753E+02    0.62500E-01  0.62500E-01 -0.12500E+00  0.00000E+00  0.00000E+00  0.00000E+00    0.16273E+02  0.17934E+02 -0.34208E+02 -0.33396E+01  0.17809E+01  0.13454E+02      982.00
  0.13612E+00  0.57242E+02    0.75000E-01  0.75000E-01 -0.15000E+00  0.00000E+00  0.00000E+00  0.00000E+00    0.16453E+02  0.17960E+02 -0.34412E+02 -0.31463E+01  0.18054E+01  0.13796E+02      982.00
  0.15867E+00  0.57756E+02    0.87500E-01  0.87500E-01 -0.17500E+00  0.00000E+00  0.00000E+00  0.00000E+00    0.16608E+02  0.18020E+02 -0.34628E+02 -0.29767E+01  0.18175E+01  0.14140E+02      982.00
  0.18115E+00  0.58302E+02    0.10000E+00  0.10000E+00 -0.20000E+00  0.00000E+00  0.00000E+00  0.00000E+00    0.16748E+02  0.18113E+02 -0.34861E+02 -0.28407E+01  0.18159E+01  0.14483E+02      982.00
  0.20357E+00  0.58838E+02    0.11250E+00  0.11250E+00 -0.22500E+00  0.00000E+00  0.00000E+00  0.00000E+00    0.16878E+02  0.18211E+02 -0.35089E+02 -0.27129E+01  0.18091E+01  0.14815E+02      982.00
  0.22594E+00  0.59350E+02    0.12500E+00  0.12500E+00 -0.25000E+00  0.00000E+00  0.00000E+00  0.00000E+00    0.16996E+02  0.18316E+02 -0.35312E+02 -0.26234E+01  0.17925E+01  0.15114E+02      982.00
  0.24825E+00  0.59865E+02    0.13750E+00  0.13750E+00 -0.27500E+00  0.00000E+00  0.00000E+00  0.00000E+00    0.17114E+02  0.18423E+02 -0.35537E+02 -0.25468E+01  0.17747E+01  0.15408E+02      982.00
  0.27051E+00  0.60348E+02    0.15000E+00  0.15000E+00 -0.30000E+00  0.00000E+00  0.00000E+00  0.00000E+00    0.17226E+02  0.18523E+02 -0.35748E+02 -0.24847E+01  0.17545E+01  0.15679E+02      982.00
  0.29272E+00  0.60792E+02    0.16250E+00  0.16250E+00 -0.32500E+00  0.00000E+00  0.00000E+00  0.00000E+00    0.17332E+02  0.18610E+02 -0.35941E+02 -0.24214E+01  0.17351E+01  0.15930E+02      982.00
  0.31489E+00  0.61221E+02    0.17500E+00  0.17500E+00 -0.35000E+00  0.00000E+00  0.00000E+00  0.00000E+00    0.17439E+02  0.18694E+02 -0.36133E+02 -0.23811E+01  0.17152E+01  0.16159E+02      982.00
  0.33703E+00  0.61609E+02    0.18750E+00  0.18750E+00 -0.37500E+00  0.00000E+00  0.00000E+00  0.00000E+00    0.17540E+02  0.18765E+02 -0.36305E+02 -0.23484E+01  0.16971E+01  0.16368E+02      982.00
  0.35912E+00  0.61978E+02    0.20000E+00  0.20000E+00 -0.40000E+00  0.00000E+00  0.00000E+00  0.00000E+00    0.17644E+02  0.18826E+02 -0.36470E+02 -0.23095E+01  0.16791E+01  0.16565E+02      982.00
  0.38119E+00  0.62306E+02    0.21250E+00  0.21250E+00 -0.42500E+00  0.00000E+00  0.00000E+00  0.00000E+00    0.17741E+02  0.18877E+02 -0.36618E+02 -0.22870E+01  0.16654E+01  0.16734E+02      982.00
  0.40323E+00  0.62634E+02    0.22500E+00  0.22500E+00 -0.45000E+00  0.00000E+00  0.00000E+00  0.00000E+00    0.17848E+02  0.18917E+02 -0.36765E+02 -0.22569E+01  0.16508E+01  0.16906E+02      982.00
  0.42524E+00  0.62904E+02    0.23750E+00  0.23750E+00 -0.47500E+00  0.00000E+00  0.00000E+00  0.00000E+00    0.17941E+02  0.18947E+02 -0.36888E+02 -0.22384E+01  0.16427E+01  0.17042E+02      982.00
  0.44723E+00  0.63136E+02    0.25000E+00  0.25000E+00 -0.50000E+00  0.00000E+00  0.00000E+00  0.00000E+00    0.18019E+02  0.18982E+02 -0.37001E+02 -0.22429E+01  0.16384E+01  0.17145E+02      982.00
  0.46921E+00  0.63367E+02    0.26250E+00  0.26250E+00 -0.52500E+00  0.00000E+00  0.00000E+00  0.00000E+00    0.18108E+02  0.19000E+02 -0.37108E+02 -0.22278E+01  0.16329E+01  0.17259E+02      982.00
  0.49117E+00  0.63565E+02    0.27500E+00  0.27500E+00 -0.55000E+00  0.00000E+00  0.00000E+00  0.00000E+00    0.18197E+02  0.19003E+02 -0.37200E+02 -0.22090E+01  0.16287E+01  0.17356E+02      982.00
  0.51311E+00  0.63758E+02    0.28750E+00  0.28750E+00 -0.57500E+00  0.00000E+00  0.00000E+00  0.00000E+00    0.18284E+02  0.19008E+02 -0.37291E+02 -0.21977E+01  0.16265E+01  0.17449E+02      982.00
  0.53505E+00  0.63929E+02    0.30000E+00  0.30000E+00 -0.60000E+00  0.00000E+00  0.00000E+00  0.00000E+00    0.18374E+02  0.18996E+02 -0.37370E+02 -0.21825E+01  0.16247E+01  0.17532E+02      982.00
  0.55697E+00  0.64096E+02    0.31250E+00  0.31250E+00 -0.62500E+00  0.00000E+00  0.00000E+00  0.00000E+00    0.18460E+02  0.18991E+02 -0.37451E+02 -0.21745E+01  0.16244E+01  0.17608E+02      982.00
  0.57888E+00  0.64247E+02    0.32500E+00  0.32500E+00 -0.65000E+00  0.00000E+00  0.00000E+00  0.00000E+00    0.18543E+02  0.18983E+02 -0.37526E+02 -0.21658E+01  0.16240E+01  0.17674E+02      982.00
  0.60078E+00  0.64394E+02    0.33750E+00  0.33750E+00 -0.67500E+00  0.00000E+00  0.00000E+00  0.00000E+00    0.18640E+02  0.18955E+02 -0.37595E+02 -0.21556E+01  0.16224E+01  0.17744E+02      982.00
  0.62268E+00  0.64484E+02    0.35000E+00  0.35000E+00 -0.70000E+00  0.00000E+00  0.00000E+00  0.00000E+00    0.18692E+02  0.18953E+02 -0.37644E+02 -0.21562E+01  0.16229E+01  0.17775E+02      982.00
  0.64457E+00  0.64597E+02    0.36250E+00  0.36250E+00 -0.72500E+00  0.00000E+00  0.00000E+00  0.00000E+00    0.18767E+02  0.18934E+02 -0.37701E+02 -0.21519E+01  0.16218E+01  0.17822E+02      982.00
  0.66646E+00  0.64703E+02    0.37500E+00  0.37500E+00 -0.75000E+00  0.00000E+00  0.00000E+00  0.00000E+00    0.18841E+02  0.18914E+02 -0.37756E+02 -0.21489E+01  0.16212E+01  0.17864E+02      982.00
  0.68834E+00  0.64801E+02    0.38750E+00  0.38750E+00 -0.77500E+00  0.00000E+00  0.00000E+00  0.00000E+00    0.18914E+02  0.18892E+02 -0.37806E+02 -0.21462E+01  0.16202E+01  0.17903E+02      982.00
  0.71022E+00  0.64882E+02    0.40000E+00  0.40000E+00 -0.80000E+00  0.00000E+00  0.00000E+00  0.00000E+00    0.18993E+02  0.18853E+02 -0.37846E+02 -0.21411E+01  0.16203E+01  0.17938E+02      982.00
  0.73209E+00  0.64968E+02    0.41250E+00  0.41250E+00 -0.82500E+00  0.00000E+00  0.00000E+00  0.00000E+00    0.19062E+02  0.18829E+02 -0.37892E+02 -0.21404E+01  0.16195E+01  0.17969E+02      982.00
  0.75396E+00  0.65047E+02    0.42500E+00  0.42500E+00 -0.85000E+00  0.00000E+00  0.00000E+00  0.00000E+00    0.19130E+02  0.18806E+02 -0.37935E+02 -0.21391E+01  0.16186E+01  0.17996E+02      982.00
  0.77583E+00  0.65117E+02    0.43750E+00  0.43750E+00 -0.87500E+00  0.00000E+00  0.00000E+00  0.00000E+00    0.19193E+02  0.18780E+02 -0.37972E+02 -0.21391E+01  0.16176E+01  0.18021E+02      982.00
  0.79770E+00  0.65197E+02    0.45000E+00  0.45000E+00 -0.90000E+00  0.00000E+00  0.00000E+00  0.00000E+00    0.19283E+02  0.18733E+02 -0.38016E+02 -0.21375E+01  0.16159E+01  0.18047E+02      982.00
  0.81956E+00  0.65255E+02    0.46250E+00  0.46250E+00 -0.92500E+00  0.00000E+00  0.00000E+00  0.00000E+00    0.19342E+02  0.18705E+02 -0.38048E+02 -0.21376E+01  0.16151E+01  0.18067E+02      982.00
  0.84143E+00  0.65310E+02    0.47500E+00  0.47500E+00 -0.95000E+00  0.00000E+00  0.00000E+00  0.00000E+00    0.19399E+02  0.18680E+02 -0.38079E+02 -0.21380E+01  0.16137E+01  0.18083E+02      982.00
  0.86329E+00  0.65315E+02    0.48750E+00  0.48750E+00 -0.97500E+00  0.00000E+00  0.00000E+00  0.00000E+00    0.19377E+02  0.18703E+02 -0.38080E+02 -0.21350E+01  0.16176E+01  0.18087E+02      982.00
  0.88516E+00  0.65334E+02    0.50000E+00  0.50000E+00 -0.10000E+01  0.00000E+00  0.00000E+00  0.00000E+00    0.19462E+02  0.18632E+02 -0.38094E+02 -0.21224E+01  0.16056E+01  0.18089E+02      982.00
