          Evm          Svm            E11          E22          E33          E23          E13          E12         SDEV11       SDEV22       SDEV33       SDEV23       SDEV13       SDEV12      TEMP
  0.00000E+00  0.57399E+02    0.00000E+00  0.00000E+00  0.00000E+00  0.00000E+00  0.00000E+00  0.00000E+00    0.26168E+02  0.97436E+01 -0.35911E+02 -0.33006E+00  0.72956E+00 -0.79322E+01      982.00
  0.23462E-01  0.57626E+02    0.12500E-01  0.12500E-01 -0.25000E-01  0.00000E+00  0.00000E+00  0.00000E+00    0.26255E+02  0.97100E+01 -0.35965E+02  0.35700E-01  0.77295E+00 -0.82320E+01      982.00
  0.46866E-01  0.57916E+02    0.25000E-01  0.25000E-01 -0.50000E-01  0.00000E+00  0.00000E+00  0.00000E+00    0.26351E+02  0.97122E+01 -0.36063E+02  0.34978E+00  0.82386E+00 -0.85250E+01      982.00
  0.70216E-01  0.58284E+02    0.37500E-01  0.37500E-01 -0.75000E-01  0.00000E+00  0.00000E+00  0.00000E+00    0.26453E+02  0.97576E+01 -0.36211E+02  0.65046E+00  0.90376E+00 -0.88324E+01      982.00
  0.93514E-01  0.58738E+02    0.50000E-01  0.50000E-01 -0.10000E+00  0.00000E+00  0.00000E+00  0.00000E+00    0.26564E+02  0.98493E+01 -0.36413E+02  0.94686E+00  0.10245E+01 -0.91544E+01      982.00
  0.11676E+00  0.59271E+02    0.62500E-01  0.62500E-01 -0.12500E+00  0.00000E+00  0.00000E+00  0.00000E+00    0.26687E+02  0.99834E+01 -0.36670E+02  0.12330E+01  0.11908E+01 -0.94765E+01      982.00
  0.13996E+00  0.59874E+02    0.75000E-01  0.75000E-01 -0.15000E+00  0.00000E+00  0.00000E+00  0.00000E+00    0.26815E+02  0.10164E+02 -0.36979E+02  0.15244E+01  0.14042E+01 -0.97873E+01      982.00
  0.16312E+00  0.60519E+02    0.87500E-01  0.87500E-01 -0.17500E+00  0.00000E+00  0.00000E+00  0.00000E+00    0.26933E+02  0.10397E+02 -0.37330E+02  0.18366E+01  0.16496E+01 -0.10064E+02      982.00
  0.18625E+00  0.61116E+02    0.10000E+00  0.10000E+00 -0.20000E+00  0.00000E+00  0.00000E+00  0.00000E+00    0.26998E+02  0.10681E+02 -0.37679E+02  0.21757E+01  0.18999E+01 -0.10266E+02      982.00
  0.20937E+00  0.61582E+02    0.11250E+00  0.11250E+00 -0.22500E+00  0.00000E+00  0.00000E+00  0.00000E+00    0.27001E+02  0.10978E+02 -0.37979E+02  0.24844E+01  0.21615E+01 -0.10357E+02      982.00
  0.23250E+00  0.61965E+02    0.12500E+00  0.12500E+00 -0.25000E+00  0.00000E+00  0.00000E+00  0.00000E+00    0.27025E+02  0.11218E+02 -0.38243E+02  0.26638E+01  0.24616E+01 -0.10361E+02      982.00
  0.25564E+00  0.62359E+02    0.13750E+00  0.13750E+00 -0.27500E+00  0.00000E+00  0.00000E+00  0.00000E+00    0.27129E+02  0.11382E+02 -0.38512E+02  0.27205E+01  0.27878E+01 -0.10329E+02      982.00
  0.27880E+00  0.62756E+02    0.15000E+00  0.15000E+00 -0.30000E+00  0.00000E+00  0.00000E+00  0.00000E+00    0.27293E+02  0.11485E+02 -0.38778E+02  0.26834E+01  0.30944E+01 -0.10282E+02      982.00
  0.30198E+00  0.63160E+02    0.16250E+00  0.16250E+00 -0.32500E+00  0.00000E+00  0.00000E+00  0.00000E+00    0.27467E+02  0.11583E+02 -0.39050E+02  0.26328E+01  0.33477E+01 -0.10240E+02      982.00
  0.32516E+00  0.63588E+02    0.17500E+00  0.17500E+00 -0.35000E+00  0.00000E+00  0.00000E+00  0.00000E+00    0.27662E+02  0.11669E+02 -0.39331E+02  0.25898E+01  0.35613E+01 -0.10211E+02      982.00
  0.34836E+00  0.64022E+02    0.18750E+00  0.18750E+00 -0.37500E+00  0.00000E+00  0.00000E+00  0.00000E+00    0.27867E+02  0.11747E+02 -0.39614E+02  0.25609E+01  0.37334E+01 -0.10192E+02      982.00
  0.37156E+00  0.64460E+02    0.20000E+00  0.20000E+00 -0.40000E+00  0.00000E+00  0.00000E+00  0.00000E+00    0.28069E+02  0.11830E+02 -0.39898E+02  0.25542E+01  0.38698E+01 -0.10183E+02      982.00
  0.39477E+00  0.64884E+02    0.21250E+00  0.21250E+00 -0.42500E+00  0.00000E+00  0.00000E+00  0.00000E+00    0.28252E+02  0.11928E+02 -0.40180E+02  0.25727E+01  0.39649E+01 -0.10175E+02      982.00
  0.41799E+00  0.65309E+02    0.22500E+00  0.22500E+00 -0.45000E+00  0.00000E+00  0.00000E+00  0.00000E+00    0.28434E+02  0.12028E+02 -0.40462E+02  0.26078E+01  0.40432E+01 -0.10170E+02      982.00
  0.44122E+00  0.65726E+02    0.23750E+00  0.23750E+00 -0.47500E+00  0.00000E+00  0.00000E+00  0.00000E+00    0.28607E+02  0.12136E+02 -0.40743E+02  0.26610E+01  0.41016E+01 -0.10160E+02      982.00
  0.46447E+00  0.66096E+02    0.25000E+00  0.25000E+00 -0.50000E+00  0.00000E+00  0.00000E+00  0.00000E+00    0.28752E+02  0.12250E+02 -0.41002E+02  0.27217E+01  0.41318E+01 -0.10140E+02      982.00
  0.48773E+00  0.66430E+02    0.26250E+00  0.26250E+00 -0.52500E+00  0.00000E+00  0.00000E+00  0.00000E+00    0.28877E+02  0.12361E+02 -0.41238E+02  0.27856E+01  0.41523E+01 -0.10118E+02      982.00
  0.51101E+00  0.66744E+02    0.27500E+00  0.27500E+00 -0.55000E+00  0.00000E+00  0.00000E+00  0.00000E+00    0.28994E+02  0.12471E+02 -0.41465E+02  0.28341E+01  0.41574E+01 -0.10091E+02      982.00
  0.53431E+00  0.67060E+02    0.28750E+00  0.28750E+00 -0.57500E+00  0.00000E+00  0.00000E+00  0.00000E+00    0.29110E+02  0.12585E+02 -0.41695E+02  0.28975E+01  0.41629E+01 -0.10058E+02      982.00
  0.55763E+00  0.67361E+02    0.30000E+00  0.30000E+00 -0.60000E+00  0.00000E+00  0.00000E+00  0.00000E+00    0.29222E+02  0.12695E+02 -0.41917E+02  0.29495E+01  0.41597E+01 -0.10022E+02      982.00
  0.58096E+00  0.67638E+02    0.31250E+00  0.31250E+00 -0.62500E+00  0.00000E+00  0.00000E+00  0.00000E+00    0.29318E+02  0.12808E+02 -0.42126E+02  0.30106E+01  0.41558E+01 -0.99782E+01      982.00
  0.60432E+00  0.67897E+02    0.32500E+00  0.32500E+00 -0.65000E+00  0.00000E+00  0.00000E+00  0.00000E+00    0.29404E+02  0.12919E+02 -0.42324E+02  0.30701E+01  0.41483E+01 -0.99295E+01      982.00
  0.62769E+00  0.68137E+02    0.33750E+00  0.33750E+00 -0.67500E+00  0.00000E+00  0.00000E+00  0.00000E+00    0.29482E+02  0.13030E+02 -0.42512E+02  0.31270E+01  0.41377E+01 -0.98764E+01      982.00
  0.65109E+00  0.68360E+02    0.35000E+00  0.35000E+00 -0.70000E+00  0.00000E+00  0.00000E+00  0.00000E+00    0.29551E+02  0.13138E+02 -0.42689E+02  0.31812E+01  0.41248E+01 -0.98196E+01      982.00
  0.67451E+00  0.68568E+02    0.36250E+00  0.36250E+00 -0.72500E+00  0.00000E+00  0.00000E+00  0.00000E+00    0.29613E+02  0.13244E+02 -0.42858E+02  0.32323E+01  0.41098E+01 -0.97598E+01      982.00
  0.69795E+00  0.68760E+02    0.37500E+00  0.37500E+00 -0.75000E+00  0.00000E+00  0.00000E+00  0.00000E+00    0.29669E+02  0.13348E+02 -0.43017E+02  0.32803E+01  0.40933E+01 -0.96976E+01      982.00
  0.72141E+00  0.68939E+02    0.38750E+00  0.38750E+00 -0.77500E+00  0.00000E+00  0.00000E+00  0.00000E+00    0.29718E+02  0.13450E+02 -0.43167E+02  0.33252E+01  0.40755E+01 -0.96336E+01      982.00
  0.74489E+00  0.69105E+02    0.40000E+00  0.40000E+00 -0.80000E+00  0.00000E+00  0.00000E+00  0.00000E+00    0.29761E+02  0.13548E+02 -0.43309E+02  0.33671E+01  0.40567E+01 -0.95684E+01      982.00
  0.76839E+00  0.69259E+02    0.41250E+00  0.41250E+00 -0.82500E+00  0.00000E+00  0.00000E+00  0.00000E+00    0.29799E+02  0.13644E+02 -0.43443E+02  0.34061E+01  0.40371E+01 -0.95026E+01      982.00
  0.79191E+00  0.69401E+02    0.42500E+00  0.42500E+00 -0.85000E+00  0.00000E+00  0.00000E+00  0.00000E+00    0.29832E+02  0.13737E+02 -0.43569E+02  0.34429E+01  0.40175E+01 -0.94367E+01      982.00
  0.81545E+00  0.69534E+02    0.43750E+00  0.43750E+00 -0.87500E+00  0.00000E+00  0.00000E+00  0.00000E+00    0.29861E+02  0.13827E+02 -0.43688E+02  0.34765E+01  0.39969E+01 -0.93710E+01      982.00
  0.83901E+00  0.69657E+02    0.45000E+00  0.45000E+00 -0.90000E+00  0.00000E+00  0.00000E+00  0.00000E+00    0.29887E+02  0.13914E+02 -0.43801E+02  0.35075E+01  0.39760E+01 -0.93059E+01      982.00
  0.86260E+00  0.69712E+02    0.46250E+00  0.46250E+00 -0.92500E+00  0.00000E+00  0.00000E+00  0.00000E+00    0.29881E+02  0.13992E+02 -0.43873E+02  0.35177E+01  0.39354E+01 -0.92357E+01      982.00
  0.88620E+00  0.69762E+02    0.47500E+00  0.47500E+00 -0.95000E+00  0.00000E+00  0.00000E+00  0.00000E+00    0.29873E+02  0.14068E+02 -0.43941E+02  0.35294E+01  0.38974E+01 -0.91667E+01      982.00
  0.90982E+00  0.69809E+02    0.48750E+00  0.48750E+00 -0.97500E+00  0.00000E+00  0.00000E+00  0.00000E+00    0.29863E+02  0.14142E+02 -0.44006E+02  0.35404E+01  0.38611E+01 -0.91006E+01      982.00
  0.93345E+00  0.69844E+02    0.50000E+00  0.50000E+00 -0.10000E+01  0.00000E+00  0.00000E+00  0.00000E+00    0.29847E+02  0.14213E+02 -0.44060E+02  0.35556E+01  0.38220E+01 -0.90414E+01      982.00
