          Evm          Svm            E11          E22          E33          E23          E13          E12         SDEV11       SDEV22       SDEV33       SDEV23       SDEV13       SDEV12      TEMP
  0.00000E+00  0.62175E+02    0.00000E+00  0.00000E+00  0.00000E+00  0.00000E+00  0.00000E+00  0.00000E+00    0.18180E+02  0.22111E+02 -0.40291E+02 -0.40417E+01  0.27101E+01  0.65957E+01      982.00
  0.24301E-01  0.62437E+02    0.12500E-01  0.12500E-01 -0.25000E-01  0.00000E+00  0.00000E+00  0.00000E+00    0.19240E+02  0.21185E+02 -0.40425E+02 -0.39462E+01  0.30230E+01  0.69422E+01      982.00
  0.48580E-01  0.62662E+02    0.25000E-01  0.25000E-01 -0.50000E-01  0.00000E+00  0.00000E+00  0.00000E+00    0.20099E+02  0.20429E+02 -0.40528E+02 -0.38385E+01  0.31891E+01  0.72126E+01      982.00
  0.72834E-01  0.62852E+02    0.37500E-01  0.37500E-01 -0.75000E-01  0.00000E+00  0.00000E+00  0.00000E+00    0.20756E+02  0.19853E+02 -0.40610E+02 -0.37216E+01  0.32383E+01  0.74431E+01      982.00
  0.97063E-01  0.63026E+02    0.50000E-01  0.50000E-01 -0.10000E+00  0.00000E+00  0.00000E+00  0.00000E+00    0.21254E+02  0.19427E+02 -0.40682E+02 -0.35991E+01  0.32129E+01  0.76630E+01      982.00
  0.12127E+00  0.63198E+02    0.62500E-01  0.62500E-01 -0.12500E+00  0.00000E+00  0.00000E+00  0.00000E+00    0.21627E+02  0.19126E+02 -0.40753E+02 -0.34774E+01  0.31412E+01  0.78869E+01      982.00
  0.14545E+00  0.63382E+02    0.75000E-01  0.75000E-01 -0.15000E+00  0.00000E+00  0.00000E+00  0.00000E+00    0.21922E+02  0.18907E+02 -0.40829E+02 -0.33559E+01  0.30538E+01  0.81213E+01      982.00
  0.16961E+00  0.63582E+02    0.87500E-01  0.87500E-01 -0.17500E+00  0.00000E+00  0.00000E+00  0.00000E+00    0.22154E+02  0.18759E+02 -0.40914E+02 -0.32401E+01  0.29592E+01  0.83649E+01      982.00
  0.19374E+00  0.63800E+02    0.10000E+00  0.10000E+00 -0.20000E+00  0.00000E+00  0.00000E+00  0.00000E+00    0.22347E+02  0.18660E+02 -0.41007E+02 -0.31303E+01  0.28685E+01  0.86151E+01      982.00
  0.21784E+00  0.64033E+02    0.11250E+00  0.11250E+00 -0.22500E+00  0.00000E+00  0.00000E+00  0.00000E+00    0.22516E+02  0.18592E+02 -0.41108E+02 -0.30259E+01  0.27890E+01  0.88634E+01      982.00
  0.24191E+00  0.64279E+02    0.12500E+00  0.12500E+00 -0.25000E+00  0.00000E+00  0.00000E+00  0.00000E+00    0.22654E+02  0.18561E+02 -0.41215E+02 -0.29333E+01  0.27131E+01  0.91177E+01      982.00
  0.26596E+00  0.64529E+02    0.13750E+00  0.13750E+00 -0.27500E+00  0.00000E+00  0.00000E+00  0.00000E+00    0.22781E+02  0.18541E+02 -0.41322E+02 -0.28473E+01  0.26525E+01  0.93673E+01      982.00
  0.28997E+00  0.64787E+02    0.15000E+00  0.15000E+00 -0.30000E+00  0.00000E+00  0.00000E+00  0.00000E+00    0.22895E+02  0.18536E+02 -0.41431E+02 -0.27702E+01  0.26025E+01  0.96179E+01      982.00
  0.31395E+00  0.65053E+02    0.16250E+00  0.16250E+00 -0.32500E+00  0.00000E+00  0.00000E+00  0.00000E+00    0.23001E+02  0.18541E+02 -0.41543E+02 -0.27015E+01  0.25616E+01  0.98715E+01      982.00
  0.33790E+00  0.65308E+02    0.17500E+00  0.17500E+00 -0.35000E+00  0.00000E+00  0.00000E+00  0.00000E+00    0.23088E+02  0.18564E+02 -0.41652E+02 -0.26474E+01  0.25261E+01  0.10102E+02      982.00
  0.36182E+00  0.65555E+02    0.18750E+00  0.18750E+00 -0.37500E+00  0.00000E+00  0.00000E+00  0.00000E+00    0.23165E+02  0.18592E+02 -0.41756E+02 -0.26028E+01  0.24986E+01  0.10323E+02      982.00
  0.38570E+00  0.65815E+02    0.20000E+00  0.20000E+00 -0.40000E+00  0.00000E+00  0.00000E+00  0.00000E+00    0.23243E+02  0.18618E+02 -0.41860E+02 -0.25629E+01  0.24809E+01  0.10563E+02      982.00
  0.40956E+00  0.66006E+02    0.21250E+00  0.21250E+00 -0.42500E+00  0.00000E+00  0.00000E+00  0.00000E+00    0.23292E+02  0.18644E+02 -0.41937E+02 -0.25361E+01  0.24702E+01  0.10739E+02      982.00
  0.43338E+00  0.66219E+02    0.22500E+00  0.22500E+00 -0.45000E+00  0.00000E+00  0.00000E+00  0.00000E+00    0.23345E+02  0.18675E+02 -0.42020E+02 -0.25168E+01  0.24614E+01  0.10934E+02      982.00
  0.45718E+00  0.66457E+02    0.23750E+00  0.23750E+00 -0.47500E+00  0.00000E+00  0.00000E+00  0.00000E+00    0.23405E+02  0.18702E+02 -0.42106E+02 -0.25008E+01  0.24608E+01  0.11163E+02      982.00
  0.48094E+00  0.66637E+02    0.25000E+00  0.25000E+00 -0.50000E+00  0.00000E+00  0.00000E+00  0.00000E+00    0.23444E+02  0.18725E+02 -0.42169E+02 -0.24953E+01  0.24624E+01  0.11342E+02      982.00
  0.50467E+00  0.66801E+02    0.26250E+00  0.26250E+00 -0.52500E+00  0.00000E+00  0.00000E+00  0.00000E+00    0.23477E+02  0.18744E+02 -0.42221E+02 -0.24961E+01  0.24674E+01  0.11514E+02      982.00
  0.52837E+00  0.66950E+02    0.27500E+00  0.27500E+00 -0.55000E+00  0.00000E+00  0.00000E+00  0.00000E+00    0.23507E+02  0.18756E+02 -0.42263E+02 -0.25021E+01  0.24757E+01  0.11682E+02      982.00
  0.55204E+00  0.67084E+02    0.28750E+00  0.28750E+00 -0.57500E+00  0.00000E+00  0.00000E+00  0.00000E+00    0.23532E+02  0.18761E+02 -0.42293E+02 -0.25124E+01  0.24869E+01  0.11846E+02      982.00
  0.57568E+00  0.67203E+02    0.30000E+00  0.30000E+00 -0.60000E+00  0.00000E+00  0.00000E+00  0.00000E+00    0.23554E+02  0.18759E+02 -0.42313E+02 -0.25264E+01  0.25003E+01  0.12008E+02      982.00
  0.59929E+00  0.67307E+02    0.31250E+00  0.31250E+00 -0.62500E+00  0.00000E+00  0.00000E+00  0.00000E+00    0.23572E+02  0.18750E+02 -0.42322E+02 -0.25432E+01  0.25153E+01  0.12169E+02      982.00
  0.62287E+00  0.67407E+02    0.32500E+00  0.32500E+00 -0.65000E+00  0.00000E+00  0.00000E+00  0.00000E+00    0.23587E+02  0.18728E+02 -0.42315E+02 -0.25705E+01  0.25369E+01  0.12356E+02      982.00
  0.64642E+00  0.67483E+02    0.33750E+00  0.33750E+00 -0.67500E+00  0.00000E+00  0.00000E+00  0.00000E+00    0.23598E+02  0.18703E+02 -0.42301E+02 -0.25911E+01  0.25543E+01  0.12519E+02      982.00
  0.66992E+00  0.67544E+02    0.35000E+00  0.35000E+00 -0.70000E+00  0.00000E+00  0.00000E+00  0.00000E+00    0.23605E+02  0.18670E+02 -0.42275E+02 -0.26112E+01  0.25707E+01  0.12681E+02      982.00
  0.69339E+00  0.67592E+02    0.36250E+00  0.36250E+00 -0.72500E+00  0.00000E+00  0.00000E+00  0.00000E+00    0.23609E+02  0.18629E+02 -0.42239E+02 -0.26300E+01  0.25855E+01  0.12846E+02      982.00
  0.71683E+00  0.67629E+02    0.37500E+00  0.37500E+00 -0.75000E+00  0.00000E+00  0.00000E+00  0.00000E+00    0.23610E+02  0.18581E+02 -0.42192E+02 -0.26464E+01  0.25983E+01  0.13015E+02      982.00
  0.74022E+00  0.67652E+02    0.38750E+00  0.38750E+00 -0.77500E+00  0.00000E+00  0.00000E+00  0.00000E+00    0.23607E+02  0.18527E+02 -0.42134E+02 -0.26581E+01  0.26063E+01  0.13186E+02      982.00
  0.76358E+00  0.67664E+02    0.40000E+00  0.40000E+00 -0.80000E+00  0.00000E+00  0.00000E+00  0.00000E+00    0.23599E+02  0.18466E+02 -0.42066E+02 -0.26638E+01  0.26088E+01  0.13360E+02      982.00
  0.78689E+00  0.67664E+02    0.41250E+00  0.41250E+00 -0.82500E+00  0.00000E+00  0.00000E+00  0.00000E+00    0.23588E+02  0.18400E+02 -0.41988E+02 -0.26614E+01  0.26039E+01  0.13538E+02      982.00
  0.81016E+00  0.67652E+02    0.42500E+00  0.42500E+00 -0.85000E+00  0.00000E+00  0.00000E+00  0.00000E+00    0.23572E+02  0.18330E+02 -0.41902E+02 -0.26489E+01  0.25897E+01  0.13720E+02      982.00
  0.83339E+00  0.67631E+02    0.43750E+00  0.43750E+00 -0.87500E+00  0.00000E+00  0.00000E+00  0.00000E+00    0.23551E+02  0.18256E+02 -0.41807E+02 -0.26239E+01  0.25639E+01  0.13904E+02      982.00
  0.85657E+00  0.67593E+02    0.45000E+00  0.45000E+00 -0.90000E+00  0.00000E+00  0.00000E+00  0.00000E+00    0.23521E+02  0.18186E+02 -0.41707E+02 -0.25947E+01  0.25326E+01  0.14074E+02      982.00
  0.87971E+00  0.67559E+02    0.46250E+00  0.46250E+00 -0.92500E+00  0.00000E+00  0.00000E+00  0.00000E+00    0.23490E+02  0.18110E+02 -0.41600E+02 -0.25562E+01  0.24927E+01  0.14265E+02      982.00
  0.90280E+00  0.67526E+02    0.47500E+00  0.47500E+00 -0.95000E+00  0.00000E+00  0.00000E+00  0.00000E+00    0.23457E+02  0.18032E+02 -0.41489E+02 -0.25011E+01  0.24382E+01  0.14468E+02      982.00
  0.92584E+00  0.67482E+02    0.48750E+00  0.48750E+00 -0.97500E+00  0.00000E+00  0.00000E+00  0.00000E+00    0.23420E+02  0.17958E+02 -0.41378E+02 -0.24178E+01  0.23584E+01  0.14661E+02      982.00
  0.94883E+00  0.67444E+02    0.50000E+00  0.50000E+00 -0.10000E+01  0.00000E+00  0.00000E+00  0.00000E+00    0.23381E+02  0.17888E+02 -0.41269E+02 -0.23239E+01  0.22683E+01  0.14860E+02      982.00
