          Evm          Svm            E11          E22          E33          E23          E13          E12         SDEV11       SDEV22       SDEV33       SDEV23       SDEV13       SDEV12      TEMP
  0.00000E+00  0.61505E+02    0.00000E+00  0.00000E+00  0.00000E+00  0.00000E+00  0.00000E+00  0.00000E+00    0.17636E+02  0.19513E+02 -0.37150E+02 -0.10566E+01  0.18961E+01  0.14842E+02      982.00
  0.22650E-01  0.61504E+02    0.12500E-01  0.12500E-01 -0.25000E-01  0.00000E+00  0.00000E+00  0.00000E+00    0.17754E+02  0.19407E+02 -0.37160E+02 -0.10562E+01  0.18333E+01  0.14835E+02      982.00
  0.45308E-01  0.61534E+02    0.25000E-01  0.25000E-01 -0.50000E-01  0.00000E+00  0.00000E+00  0.00000E+00    0.17818E+02  0.19382E+02 -0.37201E+02 -0.10630E+01  0.17793E+01  0.14810E+02      982.00
  0.67978E-01  0.61568E+02    0.37500E-01  0.37500E-01 -0.75000E-01  0.00000E+00  0.00000E+00  0.00000E+00    0.17868E+02  0.19386E+02 -0.37254E+02 -0.10871E+01  0.17247E+01  0.14761E+02      982.00
  0.90669E-01  0.61616E+02    0.50000E-01  0.50000E-01 -0.10000E+00  0.00000E+00  0.00000E+00  0.00000E+00    0.17902E+02  0.19424E+02 -0.37326E+02 -0.11180E+01  0.16635E+01  0.14696E+02      982.00
  0.11339E+00  0.61692E+02    0.62500E-01  0.62500E-01 -0.12500E+00  0.00000E+00  0.00000E+00  0.00000E+00    0.17926E+02  0.19491E+02 -0.37417E+02 -0.11359E+01  0.15929E+01  0.14634E+02      982.00
  0.13613E+00  0.61799E+02    0.75000E-01  0.75000E-01 -0.15000E+00  0.00000E+00  0.00000E+00  0.00000E+00    0.17945E+02  0.19576E+02 -0.37520E+02 -0.11367E+01  0.15076E+01  0.14594E+02      982.00
  0.15890E+00  0.61948E+02    0.87500E-01  0.87500E-01 -0.17500E+00  0.00000E+00  0.00000E+00  0.00000E+00    0.17972E+02  0.19668E+02 -0.37640E+02 -0.11216E+01  0.14124E+01  0.14581E+02      982.00
  0.18168E+00  0.62141E+02    0.10000E+00  0.10000E+00 -0.20000E+00  0.00000E+00  0.00000E+00  0.00000E+00    0.18015E+02  0.19765E+02 -0.37781E+02 -0.10962E+01  0.13182E+01  0.14593E+02      982.00
  0.20448E+00  0.62363E+02    0.11250E+00  0.11250E+00 -0.22500E+00  0.00000E+00  0.00000E+00  0.00000E+00    0.18058E+02  0.19864E+02 -0.37922E+02 -0.10559E+01  0.12093E+01  0.14645E+02      982.00
  0.22729E+00  0.62587E+02    0.12500E+00  0.12500E+00 -0.25000E+00  0.00000E+00  0.00000E+00  0.00000E+00    0.18111E+02  0.19954E+02 -0.38065E+02 -0.10250E+01  0.11281E+01  0.14692E+02      982.00
  0.25009E+00  0.62848E+02    0.13750E+00  0.13750E+00 -0.27500E+00  0.00000E+00  0.00000E+00  0.00000E+00    0.18169E+02  0.20046E+02 -0.38215E+02 -0.97910E+00  0.10318E+01  0.14780E+02      982.00
  0.27289E+00  0.63082E+02    0.15000E+00  0.15000E+00 -0.30000E+00  0.00000E+00  0.00000E+00  0.00000E+00    0.18228E+02  0.20125E+02 -0.38353E+02 -0.94698E+00  0.96203E+00  0.14851E+02      982.00
  0.29569E+00  0.63343E+02    0.16250E+00  0.16250E+00 -0.32500E+00  0.00000E+00  0.00000E+00  0.00000E+00    0.18297E+02  0.20206E+02 -0.38503E+02 -0.91488E+00  0.89579E+00  0.14935E+02      982.00
  0.31849E+00  0.63603E+02    0.17500E+00  0.17500E+00 -0.35000E+00  0.00000E+00  0.00000E+00  0.00000E+00    0.18367E+02  0.20284E+02 -0.38651E+02 -0.88735E+00  0.83890E+00  0.15019E+02      982.00
  0.34128E+00  0.63858E+02    0.18750E+00  0.18750E+00 -0.37500E+00  0.00000E+00  0.00000E+00  0.00000E+00    0.18439E+02  0.20359E+02 -0.38798E+02 -0.86536E+00  0.79160E+00  0.15100E+02      982.00
  0.36406E+00  0.64128E+02    0.20000E+00  0.20000E+00 -0.40000E+00  0.00000E+00  0.00000E+00  0.00000E+00    0.18514E+02  0.20434E+02 -0.38948E+02 -0.84387E+00  0.74474E+00  0.15195E+02      982.00
  0.38684E+00  0.64364E+02    0.21250E+00  0.21250E+00 -0.42500E+00  0.00000E+00  0.00000E+00  0.00000E+00    0.18583E+02  0.20505E+02 -0.39087E+02 -0.83667E+00  0.71849E+00  0.15261E+02      982.00
  0.40961E+00  0.64588E+02    0.22500E+00  0.22500E+00 -0.45000E+00  0.00000E+00  0.00000E+00  0.00000E+00    0.18647E+02  0.20576E+02 -0.39223E+02 -0.83821E+00  0.70373E+00  0.15317E+02      982.00
  0.43238E+00  0.64830E+02    0.23750E+00  0.23750E+00 -0.47500E+00  0.00000E+00  0.00000E+00  0.00000E+00    0.18716E+02  0.20652E+02 -0.39368E+02 -0.84863E+00  0.69596E+00  0.15377E+02      982.00
  0.45515E+00  0.65067E+02    0.25000E+00  0.25000E+00 -0.50000E+00  0.00000E+00  0.00000E+00  0.00000E+00    0.18783E+02  0.20733E+02 -0.39516E+02 -0.87985E+00  0.71096E+00  0.15423E+02      982.00
  0.47793E+00  0.65243E+02    0.26250E+00  0.26250E+00 -0.52500E+00  0.00000E+00  0.00000E+00  0.00000E+00    0.18833E+02  0.20805E+02 -0.39637E+02 -0.92567E+00  0.74715E+00  0.15432E+02      982.00
  0.50071E+00  0.65349E+02    0.27500E+00  0.27500E+00 -0.55000E+00  0.00000E+00  0.00000E+00  0.00000E+00    0.18860E+02  0.20856E+02 -0.39716E+02 -0.95753E+00  0.77861E+00  0.15426E+02      982.00
  0.52350E+00  0.65536E+02    0.28750E+00  0.28750E+00 -0.57500E+00  0.00000E+00  0.00000E+00  0.00000E+00    0.18914E+02  0.20934E+02 -0.39847E+02 -0.10155E+01  0.83072E+00  0.15429E+02      982.00
  0.54630E+00  0.65711E+02    0.30000E+00  0.30000E+00 -0.60000E+00  0.00000E+00  0.00000E+00  0.00000E+00    0.18964E+02  0.21014E+02 -0.39978E+02 -0.11055E+01  0.91422E+00  0.15412E+02      982.00
  0.56912E+00  0.65881E+02    0.31250E+00  0.31250E+00 -0.62500E+00  0.00000E+00  0.00000E+00  0.00000E+00    0.19016E+02  0.21091E+02 -0.40107E+02 -0.11984E+01  0.10025E+01  0.15389E+02      982.00
  0.59195E+00  0.66035E+02    0.32500E+00  0.32500E+00 -0.65000E+00  0.00000E+00  0.00000E+00  0.00000E+00    0.19066E+02  0.21169E+02 -0.40234E+02 -0.13170E+01  0.11172E+01  0.15342E+02      982.00
  0.61479E+00  0.66196E+02    0.33750E+00  0.33750E+00 -0.67500E+00  0.00000E+00  0.00000E+00  0.00000E+00    0.19121E+02  0.21247E+02 -0.40368E+02 -0.14404E+01  0.12374E+01  0.15288E+02      982.00
  0.63766E+00  0.66344E+02    0.35000E+00  0.35000E+00 -0.70000E+00  0.00000E+00  0.00000E+00  0.00000E+00    0.19175E+02  0.21327E+02 -0.40501E+02 -0.15811E+01  0.13756E+01  0.15211E+02      982.00
  0.66056E+00  0.66491E+02    0.36250E+00  0.36250E+00 -0.72500E+00  0.00000E+00  0.00000E+00  0.00000E+00    0.19233E+02  0.21404E+02 -0.40637E+02 -0.17222E+01  0.15143E+01  0.15124E+02      982.00
  0.68347E+00  0.66636E+02    0.37500E+00  0.37500E+00 -0.75000E+00  0.00000E+00  0.00000E+00  0.00000E+00    0.19293E+02  0.21483E+02 -0.40776E+02 -0.18665E+01  0.16564E+01  0.15023E+02      982.00
  0.70642E+00  0.66783E+02    0.38750E+00  0.38750E+00 -0.77500E+00  0.00000E+00  0.00000E+00  0.00000E+00    0.19359E+02  0.21560E+02 -0.40919E+02 -0.20026E+01  0.17899E+01  0.14915E+02      982.00
  0.72940E+00  0.66926E+02    0.40000E+00  0.40000E+00 -0.80000E+00  0.00000E+00  0.00000E+00  0.00000E+00    0.19425E+02  0.21636E+02 -0.41061E+02 -0.21331E+01  0.19175E+01  0.14801E+02      982.00
  0.75241E+00  0.67068E+02    0.41250E+00  0.41250E+00 -0.82500E+00  0.00000E+00  0.00000E+00  0.00000E+00    0.19494E+02  0.21710E+02 -0.41204E+02 -0.22527E+01  0.20339E+01  0.14684E+02      982.00
  0.77544E+00  0.67208E+02    0.42500E+00  0.42500E+00 -0.85000E+00  0.00000E+00  0.00000E+00  0.00000E+00    0.19564E+02  0.21781E+02 -0.41345E+02 -0.23603E+01  0.21379E+01  0.14567E+02      982.00
  0.79851E+00  0.67346E+02    0.43750E+00  0.43750E+00 -0.87500E+00  0.00000E+00  0.00000E+00  0.00000E+00    0.19635E+02  0.21852E+02 -0.41486E+02 -0.24630E+01  0.22363E+01  0.14446E+02      982.00
  0.82161E+00  0.67481E+02    0.45000E+00  0.45000E+00 -0.90000E+00  0.00000E+00  0.00000E+00  0.00000E+00    0.19705E+02  0.21919E+02 -0.41624E+02 -0.25458E+01  0.23148E+01  0.14331E+02      982.00
  0.84474E+00  0.67612E+02    0.46250E+00  0.46250E+00 -0.92500E+00  0.00000E+00  0.00000E+00  0.00000E+00    0.19775E+02  0.21983E+02 -0.41759E+02 -0.26168E+01  0.23812E+01  0.14220E+02      982.00
  0.86791E+00  0.67746E+02    0.47500E+00  0.47500E+00 -0.95000E+00  0.00000E+00  0.00000E+00  0.00000E+00    0.19848E+02  0.22048E+02 -0.41896E+02 -0.26737E+01  0.24332E+01  0.14110E+02      982.00
  0.89110E+00  0.67868E+02    0.48750E+00  0.48750E+00 -0.97500E+00  0.00000E+00  0.00000E+00  0.00000E+00    0.19914E+02  0.22108E+02 -0.42021E+02 -0.27309E+01  0.24852E+01  0.14006E+02      982.00
  0.91432E+00  0.67987E+02    0.50000E+00  0.50000E+00 -0.10000E+01  0.00000E+00  0.00000E+00  0.00000E+00    0.19979E+02  0.22165E+02 -0.42143E+02 -0.27725E+01  0.25219E+01  0.13908E+02      982.00
