          Evm          Svm            E11          E22          E33          E23          E13          E12         SDEV11       SDEV22       SDEV33       SDEV23       SDEV13       SDEV12      TEMP
  0.00000E+00  0.59601E+02    0.00000E+00  0.00000E+00  0.00000E+00  0.00000E+00  0.00000E+00  0.00000E+00    0.12846E+02  0.25023E+02 -0.37869E+02 -0.42960E+01  0.30191E+01 -0.66262E+01      982.00
  0.23827E-01  0.59565E+02    0.12500E-01  0.12500E-01 -0.25000E-01  0.00000E+00  0.00000E+00  0.00000E+00    0.12820E+02  0.24993E+02 -0.37813E+02 -0.42604E+01  0.30625E+01 -0.67641E+01      982.00
  0.47632E-01  0.59562E+02    0.25000E-01  0.25000E-01 -0.50000E-01  0.00000E+00  0.00000E+00  0.00000E+00    0.12814E+02  0.24973E+02 -0.37787E+02 -0.41898E+01  0.30887E+01 -0.68999E+01      982.00
  0.71422E-01  0.59627E+02    0.37500E-01  0.37500E-01 -0.75000E-01  0.00000E+00  0.00000E+00  0.00000E+00    0.12835E+02  0.24976E+02 -0.37811E+02 -0.40753E+01  0.31195E+01 -0.70480E+01      982.00
  0.95202E-01  0.59767E+02    0.50000E-01  0.50000E-01 -0.10000E+00  0.00000E+00  0.00000E+00  0.00000E+00    0.12889E+02  0.25000E+02 -0.37889E+02 -0.38959E+01  0.31690E+01 -0.72200E+01      982.00
  0.11898E+00  0.59963E+02    0.62500E-01  0.62500E-01 -0.12500E+00  0.00000E+00  0.00000E+00  0.00000E+00    0.12970E+02  0.25040E+02 -0.38010E+02 -0.36455E+01  0.32315E+01 -0.74041E+01      982.00
  0.14275E+00  0.60198E+02    0.75000E-01  0.75000E-01 -0.15000E+00  0.00000E+00  0.00000E+00  0.00000E+00    0.13077E+02  0.25088E+02 -0.38165E+02 -0.33265E+01  0.32922E+01 -0.75850E+01      982.00
  0.16652E+00  0.60454E+02    0.87500E-01  0.87500E-01 -0.17500E+00  0.00000E+00  0.00000E+00  0.00000E+00    0.13205E+02  0.25139E+02 -0.38343E+02 -0.29442E+01  0.33446E+01 -0.77537E+01      982.00
  0.19030E+00  0.60714E+02    0.10000E+00  0.10000E+00 -0.20000E+00  0.00000E+00  0.00000E+00  0.00000E+00    0.13345E+02  0.25183E+02 -0.38528E+02 -0.25424E+01  0.33742E+01 -0.79085E+01      982.00
  0.21410E+00  0.60986E+02    0.11250E+00  0.11250E+00 -0.22500E+00  0.00000E+00  0.00000E+00  0.00000E+00    0.13486E+02  0.25235E+02 -0.38721E+02 -0.21409E+01  0.33874E+01 -0.80449E+01      982.00
  0.23791E+00  0.61281E+02    0.12500E+00  0.12500E+00 -0.25000E+00  0.00000E+00  0.00000E+00  0.00000E+00    0.13617E+02  0.25306E+02 -0.38923E+02 -0.17743E+01  0.33894E+01 -0.81689E+01      982.00
  0.26173E+00  0.61601E+02    0.13750E+00  0.13750E+00 -0.27500E+00  0.00000E+00  0.00000E+00  0.00000E+00    0.13736E+02  0.25399E+02 -0.39134E+02 -0.14556E+01  0.33880E+01 -0.82865E+01      982.00
  0.28555E+00  0.61944E+02    0.15000E+00  0.15000E+00 -0.30000E+00  0.00000E+00  0.00000E+00  0.00000E+00    0.13840E+02  0.25512E+02 -0.39352E+02 -0.11965E+01  0.33864E+01 -0.84046E+01      982.00
  0.30938E+00  0.62311E+02    0.16250E+00  0.16250E+00 -0.32500E+00  0.00000E+00  0.00000E+00  0.00000E+00    0.13935E+02  0.25646E+02 -0.39581E+02 -0.97341E+00  0.33882E+01 -0.85158E+01      982.00
  0.33320E+00  0.62693E+02    0.17500E+00  0.17500E+00 -0.35000E+00  0.00000E+00  0.00000E+00  0.00000E+00    0.14024E+02  0.25792E+02 -0.39815E+02 -0.79532E+00  0.33915E+01 -0.86269E+01      982.00
  0.35701E+00  0.63064E+02    0.18750E+00  0.18750E+00 -0.37500E+00  0.00000E+00  0.00000E+00  0.00000E+00    0.14105E+02  0.25939E+02 -0.40044E+02 -0.64115E+00  0.33925E+01 -0.87248E+01      982.00
  0.38082E+00  0.63432E+02    0.20000E+00  0.20000E+00 -0.40000E+00  0.00000E+00  0.00000E+00  0.00000E+00    0.14181E+02  0.26087E+02 -0.40268E+02 -0.51324E+00  0.33975E+01 -0.88220E+01      982.00
  0.40463E+00  0.63790E+02    0.21250E+00  0.21250E+00 -0.42500E+00  0.00000E+00  0.00000E+00  0.00000E+00    0.14255E+02  0.26233E+02 -0.40487E+02 -0.40235E+00  0.34000E+01 -0.89103E+01      982.00
  0.42843E+00  0.64111E+02    0.22500E+00  0.22500E+00 -0.45000E+00  0.00000E+00  0.00000E+00  0.00000E+00    0.14323E+02  0.26362E+02 -0.40685E+02 -0.29809E+00  0.34019E+01 -0.89849E+01      982.00
  0.45223E+00  0.64433E+02    0.23750E+00  0.23750E+00 -0.47500E+00  0.00000E+00  0.00000E+00  0.00000E+00    0.14389E+02  0.26494E+02 -0.40884E+02 -0.21111E+00  0.34026E+01 -0.90547E+01      982.00
  0.47602E+00  0.64737E+02    0.25000E+00  0.25000E+00 -0.50000E+00  0.00000E+00  0.00000E+00  0.00000E+00    0.14455E+02  0.26619E+02 -0.41074E+02 -0.13306E+00  0.34000E+01 -0.91150E+01      982.00
  0.49982E+00  0.65008E+02    0.26250E+00  0.26250E+00 -0.52500E+00  0.00000E+00  0.00000E+00  0.00000E+00    0.14514E+02  0.26730E+02 -0.41244E+02 -0.50940E-01  0.33971E+01 -0.91670E+01      982.00
  0.52361E+00  0.65270E+02    0.27500E+00  0.27500E+00 -0.55000E+00  0.00000E+00  0.00000E+00  0.00000E+00    0.14573E+02  0.26837E+02 -0.41410E+02  0.15487E-01  0.33915E+01 -0.92107E+01      982.00
  0.54740E+00  0.65507E+02    0.28750E+00  0.28750E+00 -0.57500E+00  0.00000E+00  0.00000E+00  0.00000E+00    0.14629E+02  0.26933E+02 -0.41562E+02  0.76009E-01  0.33832E+01 -0.92478E+01      982.00
  0.57119E+00  0.65733E+02    0.30000E+00  0.30000E+00 -0.60000E+00  0.00000E+00  0.00000E+00  0.00000E+00    0.14683E+02  0.27025E+02 -0.41708E+02  0.13360E+00  0.33743E+01 -0.92782E+01      982.00
  0.59499E+00  0.65944E+02    0.31250E+00  0.31250E+00 -0.62500E+00  0.00000E+00  0.00000E+00  0.00000E+00    0.14737E+02  0.27110E+02 -0.41846E+02  0.18780E+00  0.33641E+01 -0.93047E+01      982.00
  0.61878E+00  0.66133E+02    0.32500E+00  0.32500E+00 -0.65000E+00  0.00000E+00  0.00000E+00  0.00000E+00    0.14786E+02  0.27185E+02 -0.41971E+02  0.23926E+00  0.33521E+01 -0.93257E+01      982.00
  0.64258E+00  0.66319E+02    0.33750E+00  0.33750E+00 -0.67500E+00  0.00000E+00  0.00000E+00  0.00000E+00    0.14836E+02  0.27259E+02 -0.42094E+02  0.28817E+00  0.33391E+01 -0.93427E+01      982.00
  0.66638E+00  0.66461E+02    0.35000E+00  0.35000E+00 -0.70000E+00  0.00000E+00  0.00000E+00  0.00000E+00    0.14877E+02  0.27314E+02 -0.42191E+02  0.33126E+00  0.33242E+01 -0.93513E+01      982.00
  0.69019E+00  0.66626E+02    0.36250E+00  0.36250E+00 -0.72500E+00  0.00000E+00  0.00000E+00  0.00000E+00    0.14925E+02  0.27378E+02 -0.42302E+02  0.37589E+00  0.33097E+01 -0.93631E+01      982.00
  0.71400E+00  0.66767E+02    0.37500E+00  0.37500E+00 -0.75000E+00  0.00000E+00  0.00000E+00  0.00000E+00    0.14968E+02  0.27431E+02 -0.42399E+02  0.41882E+00  0.32949E+01 -0.93714E+01      982.00
  0.73781E+00  0.66903E+02    0.38750E+00  0.38750E+00 -0.77500E+00  0.00000E+00  0.00000E+00  0.00000E+00    0.15010E+02  0.27482E+02 -0.42492E+02  0.46030E+00  0.32797E+01 -0.93774E+01      982.00
  0.76163E+00  0.67028E+02    0.40000E+00  0.40000E+00 -0.80000E+00  0.00000E+00  0.00000E+00  0.00000E+00    0.15051E+02  0.27529E+02 -0.42579E+02  0.50022E+00  0.32649E+01 -0.93813E+01      982.00
  0.78545E+00  0.67143E+02    0.41250E+00  0.41250E+00 -0.82500E+00  0.00000E+00  0.00000E+00  0.00000E+00    0.15089E+02  0.27571E+02 -0.42660E+02  0.53887E+00  0.32484E+01 -0.93825E+01      982.00
  0.80928E+00  0.67251E+02    0.42500E+00  0.42500E+00 -0.85000E+00  0.00000E+00  0.00000E+00  0.00000E+00    0.15126E+02  0.27609E+02 -0.42735E+02  0.57630E+00  0.32327E+01 -0.93855E+01      982.00
  0.83311E+00  0.67351E+02    0.43750E+00  0.43750E+00 -0.87500E+00  0.00000E+00  0.00000E+00  0.00000E+00    0.15162E+02  0.27645E+02 -0.42807E+02  0.61286E+00  0.32158E+01 -0.93845E+01      982.00
  0.85694E+00  0.67452E+02    0.45000E+00  0.45000E+00 -0.90000E+00  0.00000E+00  0.00000E+00  0.00000E+00    0.15199E+02  0.27680E+02 -0.42879E+02  0.64791E+00  0.31992E+01 -0.93850E+01      982.00
  0.88078E+00  0.67498E+02    0.46250E+00  0.46250E+00 -0.92500E+00  0.00000E+00  0.00000E+00  0.00000E+00    0.15232E+02  0.27687E+02 -0.42920E+02  0.68249E+00  0.31622E+01 -0.93716E+01      982.00
  0.90463E+00  0.67516E+02    0.47500E+00  0.47500E+00 -0.95000E+00  0.00000E+00  0.00000E+00  0.00000E+00    0.15248E+02  0.27691E+02 -0.42939E+02  0.71152E+00  0.31334E+01 -0.93601E+01      982.00
  0.92847E+00  0.67565E+02    0.48750E+00  0.48750E+00 -0.97500E+00  0.00000E+00  0.00000E+00  0.00000E+00    0.15279E+02  0.27701E+02 -0.42981E+02  0.74593E+00  0.31034E+01 -0.93489E+01      982.00
  0.95233E+00  0.67580E+02    0.50000E+00  0.50000E+00 -0.10000E+01  0.00000E+00  0.00000E+00  0.00000E+00    0.15294E+02  0.27703E+02 -0.42997E+02  0.77366E+00  0.30781E+01 -0.93380E+01      982.00
