          Evm          Svm            E11          E22          E33          E23          E13          E12         SDEV11       SDEV22       SDEV33       SDEV23       SDEV13       SDEV12      TEMP
  0.00000E+00  0.65938E+02    0.00000E+00  0.00000E+00  0.00000E+00  0.00000E+00  0.00000E+00  0.00000E+00    0.18567E+02  0.24453E+02 -0.43020E+02  0.16304E+01 -0.65687E+01 -0.26000E+01      982.00
  0.24466E-01  0.65751E+02    0.12500E-01  0.12500E-01 -0.25000E-01  0.00000E+00  0.00000E+00  0.00000E+00    0.18045E+02  0.24818E+02 -0.42863E+02  0.17137E+01 -0.65204E+01 -0.24925E+01      982.00
  0.48912E-01  0.65659E+02    0.25000E-01  0.25000E-01 -0.50000E-01  0.00000E+00  0.00000E+00  0.00000E+00    0.17546E+02  0.25216E+02 -0.42762E+02  0.17895E+01 -0.64909E+01 -0.23571E+01      982.00
  0.73335E-01  0.65651E+02    0.37500E-01  0.37500E-01 -0.75000E-01  0.00000E+00  0.00000E+00  0.00000E+00    0.17047E+02  0.25663E+02 -0.42711E+02  0.18600E+01 -0.64538E+01 -0.21999E+01      982.00
  0.97732E-01  0.65717E+02    0.50000E-01  0.50000E-01 -0.10000E+00  0.00000E+00  0.00000E+00  0.00000E+00    0.16568E+02  0.26136E+02 -0.42704E+02  0.19249E+01 -0.64138E+01 -0.20308E+01      982.00
  0.12210E+00  0.65844E+02    0.62500E-01  0.62500E-01 -0.12500E+00  0.00000E+00  0.00000E+00  0.00000E+00    0.16117E+02  0.26617E+02 -0.42734E+02  0.19855E+01 -0.63665E+01 -0.18593E+01      982.00
  0.14644E+00  0.66025E+02    0.75000E-01  0.75000E-01 -0.15000E+00  0.00000E+00  0.00000E+00  0.00000E+00    0.15712E+02  0.27086E+02 -0.42798E+02  0.20399E+01 -0.63211E+01 -0.16956E+01      982.00
  0.17075E+00  0.66233E+02    0.87500E-01  0.87500E-01 -0.17500E+00  0.00000E+00  0.00000E+00  0.00000E+00    0.15364E+02  0.27516E+02 -0.42880E+02  0.20814E+01 -0.62927E+01 -0.15491E+01      982.00
  0.19502E+00  0.66474E+02    0.10000E+00  0.10000E+00 -0.20000E+00  0.00000E+00  0.00000E+00  0.00000E+00    0.15064E+02  0.27922E+02 -0.42985E+02  0.21117E+01 -0.62718E+01 -0.14216E+01      982.00
  0.21927E+00  0.66733E+02    0.11250E+00  0.11250E+00 -0.22500E+00  0.00000E+00  0.00000E+00  0.00000E+00    0.14804E+02  0.28301E+02 -0.43106E+02  0.21360E+01 -0.62475E+01 -0.13169E+01      982.00
  0.24350E+00  0.67002E+02    0.12500E+00  0.12500E+00 -0.25000E+00  0.00000E+00  0.00000E+00  0.00000E+00    0.14592E+02  0.28644E+02 -0.43235E+02  0.21438E+01 -0.62432E+01 -0.12342E+01      982.00
  0.26769E+00  0.67271E+02    0.13750E+00  0.13750E+00 -0.27500E+00  0.00000E+00  0.00000E+00  0.00000E+00    0.14405E+02  0.28964E+02 -0.43368E+02  0.21471E+01 -0.62362E+01 -0.11732E+01      982.00
  0.29187E+00  0.67540E+02    0.15000E+00  0.15000E+00 -0.30000E+00  0.00000E+00  0.00000E+00  0.00000E+00    0.14257E+02  0.29248E+02 -0.43505E+02  0.21360E+01 -0.62472E+01 -0.11300E+01      982.00
  0.31602E+00  0.67781E+02    0.16250E+00  0.16250E+00 -0.32500E+00  0.00000E+00  0.00000E+00  0.00000E+00    0.14138E+02  0.29490E+02 -0.43628E+02  0.21192E+01 -0.62636E+01 -0.11022E+01      982.00
  0.34016E+00  0.68031E+02    0.17500E+00  0.17500E+00 -0.35000E+00  0.00000E+00  0.00000E+00  0.00000E+00    0.14024E+02  0.29734E+02 -0.43758E+02  0.20998E+01 -0.62785E+01 -0.10882E+01      982.00
  0.36428E+00  0.68263E+02    0.18750E+00  0.18750E+00 -0.37500E+00  0.00000E+00  0.00000E+00  0.00000E+00    0.13931E+02  0.29947E+02 -0.43877E+02  0.20728E+01 -0.63049E+01 -0.10791E+01      982.00
  0.38839E+00  0.68473E+02    0.20000E+00  0.20000E+00 -0.40000E+00  0.00000E+00  0.00000E+00  0.00000E+00    0.13835E+02  0.30149E+02 -0.43984E+02  0.20410E+01 -0.63306E+01 -0.10836E+01      982.00
  0.41247E+00  0.68667E+02    0.21250E+00  0.21250E+00 -0.42500E+00  0.00000E+00  0.00000E+00  0.00000E+00    0.13761E+02  0.30322E+02 -0.44083E+02  0.20083E+01 -0.63614E+01 -0.10856E+01      982.00
  0.43655E+00  0.68840E+02    0.22500E+00  0.22500E+00 -0.45000E+00  0.00000E+00  0.00000E+00  0.00000E+00    0.13693E+02  0.30478E+02 -0.44170E+02  0.19739E+01 -0.63930E+01 -0.10897E+01      982.00
  0.46061E+00  0.68995E+02    0.23750E+00  0.23750E+00 -0.47500E+00  0.00000E+00  0.00000E+00  0.00000E+00    0.13628E+02  0.30619E+02 -0.44247E+02  0.19385E+01 -0.64239E+01 -0.10949E+01      982.00
  0.48466E+00  0.69118E+02    0.25000E+00  0.25000E+00 -0.50000E+00  0.00000E+00  0.00000E+00  0.00000E+00    0.13579E+02  0.30730E+02 -0.44309E+02  0.19085E+01 -0.64465E+01 -0.11021E+01      982.00
  0.50870E+00  0.69242E+02    0.26250E+00  0.26250E+00 -0.52500E+00  0.00000E+00  0.00000E+00  0.00000E+00    0.13518E+02  0.30850E+02 -0.44368E+02  0.18718E+01 -0.64740E+01 -0.11069E+01      982.00
  0.53273E+00  0.69349E+02    0.27500E+00  0.27500E+00 -0.55000E+00  0.00000E+00  0.00000E+00  0.00000E+00    0.13458E+02  0.30960E+02 -0.44418E+02  0.18338E+01 -0.64990E+01 -0.11113E+01      982.00
  0.55675E+00  0.69443E+02    0.28750E+00  0.28750E+00 -0.57500E+00  0.00000E+00  0.00000E+00  0.00000E+00    0.13398E+02  0.31061E+02 -0.44459E+02  0.17947E+01 -0.65212E+01 -0.11147E+01      982.00
  0.58075E+00  0.69523E+02    0.30000E+00  0.30000E+00 -0.60000E+00  0.00000E+00  0.00000E+00  0.00000E+00    0.13339E+02  0.31154E+02 -0.44493E+02  0.17546E+01 -0.65404E+01 -0.11166E+01      982.00
  0.60475E+00  0.69585E+02    0.31250E+00  0.31250E+00 -0.62500E+00  0.00000E+00  0.00000E+00  0.00000E+00    0.13279E+02  0.31236E+02 -0.44515E+02  0.17127E+01 -0.65577E+01 -0.11173E+01      982.00
  0.62874E+00  0.69650E+02    0.32500E+00  0.32500E+00 -0.65000E+00  0.00000E+00  0.00000E+00  0.00000E+00    0.13216E+02  0.31322E+02 -0.44539E+02  0.16822E+01 -0.65764E+01 -0.11087E+01      982.00
  0.65272E+00  0.69701E+02    0.33750E+00  0.33750E+00 -0.67500E+00  0.00000E+00  0.00000E+00  0.00000E+00    0.13157E+02  0.31399E+02 -0.44555E+02  0.16410E+01 -0.65876E+01 -0.11055E+01      982.00
  0.67669E+00  0.69744E+02    0.35000E+00  0.35000E+00 -0.70000E+00  0.00000E+00  0.00000E+00  0.00000E+00    0.13097E+02  0.31471E+02 -0.44568E+02  0.15987E+01 -0.65959E+01 -0.11003E+01      982.00
  0.70066E+00  0.69781E+02    0.36250E+00  0.36250E+00 -0.72500E+00  0.00000E+00  0.00000E+00  0.00000E+00    0.13037E+02  0.31541E+02 -0.44577E+02  0.15561E+01 -0.66018E+01 -0.10931E+01      982.00
  0.72461E+00  0.69813E+02    0.37500E+00  0.37500E+00 -0.75000E+00  0.00000E+00  0.00000E+00  0.00000E+00    0.12977E+02  0.31607E+02 -0.44584E+02  0.15136E+01 -0.66056E+01 -0.10839E+01      982.00
  0.74856E+00  0.69841E+02    0.38750E+00  0.38750E+00 -0.77500E+00  0.00000E+00  0.00000E+00  0.00000E+00    0.12917E+02  0.31670E+02 -0.44588E+02  0.14713E+01 -0.66075E+01 -0.10726E+01      982.00
  0.77250E+00  0.69867E+02    0.40000E+00  0.40000E+00 -0.80000E+00  0.00000E+00  0.00000E+00  0.00000E+00    0.12849E+02  0.31738E+02 -0.44587E+02  0.14393E+01 -0.66140E+01 -0.10562E+01      982.00
  0.79643E+00  0.69888E+02    0.41250E+00  0.41250E+00 -0.82500E+00  0.00000E+00  0.00000E+00  0.00000E+00    0.12790E+02  0.31797E+02 -0.44587E+02  0.13996E+01 -0.66134E+01 -0.10412E+01      982.00
  0.82036E+00  0.69907E+02    0.42500E+00  0.42500E+00 -0.85000E+00  0.00000E+00  0.00000E+00  0.00000E+00    0.12733E+02  0.31854E+02 -0.44587E+02  0.13604E+01 -0.66115E+01 -0.10245E+01      982.00
  0.84427E+00  0.69925E+02    0.43750E+00  0.43750E+00 -0.87500E+00  0.00000E+00  0.00000E+00  0.00000E+00    0.12675E+02  0.31910E+02 -0.44585E+02  0.13224E+01 -0.66088E+01 -0.10062E+01      982.00
  0.86819E+00  0.69871E+02    0.45000E+00  0.45000E+00 -0.90000E+00  0.00000E+00  0.00000E+00  0.00000E+00    0.12600E+02  0.31941E+02 -0.44541E+02  0.12933E+01 -0.65735E+01 -0.98857E+00      982.00
  0.89209E+00  0.69823E+02    0.46250E+00  0.46250E+00 -0.92500E+00  0.00000E+00  0.00000E+00  0.00000E+00    0.12534E+02  0.31969E+02 -0.44503E+02  0.12557E+01 -0.65398E+01 -0.96805E+00      982.00
  0.91599E+00  0.69777E+02    0.47500E+00  0.47500E+00 -0.95000E+00  0.00000E+00  0.00000E+00  0.00000E+00    0.12469E+02  0.31997E+02 -0.44466E+02  0.12170E+01 -0.65057E+01 -0.94583E+00      982.00
  0.93989E+00  0.69734E+02    0.48750E+00  0.48750E+00 -0.97500E+00  0.00000E+00  0.00000E+00  0.00000E+00    0.12406E+02  0.32026E+02 -0.44431E+02  0.11784E+01 -0.64711E+01 -0.92229E+00      982.00
  0.96378E+00  0.69697E+02    0.50000E+00  0.50000E+00 -0.10000E+01  0.00000E+00  0.00000E+00  0.00000E+00    0.12347E+02  0.32053E+02 -0.44400E+02  0.11469E+01 -0.64415E+01 -0.89769E+00      982.00
