          Evm          Svm            E11          E22          E33          E23          E13          E12         SDEV11       SDEV22       SDEV33       SDEV23       SDEV13       SDEV12      TEMP
  0.00000E+00  0.62770E+02    0.00000E+00  0.00000E+00  0.00000E+00  0.00000E+00  0.00000E+00  0.00000E+00    0.21498E+02  0.18191E+02 -0.39689E+02  0.51053E+01  0.54049E+01 -0.85992E+01      982.00
  0.23711E-01  0.62637E+02    0.12500E-01  0.12500E-01 -0.25000E-01  0.00000E+00  0.00000E+00  0.00000E+00    0.21420E+02  0.18292E+02 -0.39712E+02  0.50453E+01  0.53071E+01 -0.83024E+01      982.00
  0.47486E-01  0.62606E+02    0.25000E-01  0.25000E-01 -0.50000E-01  0.00000E+00  0.00000E+00  0.00000E+00    0.21402E+02  0.18375E+02 -0.39776E+02  0.50239E+01  0.52451E+01 -0.80527E+01      982.00
  0.71312E-01  0.62629E+02    0.37500E-01  0.37500E-01 -0.75000E-01  0.00000E+00  0.00000E+00  0.00000E+00    0.21405E+02  0.18448E+02 -0.39854E+02  0.50266E+01  0.52048E+01 -0.78551E+01      982.00
  0.95174E-01  0.62723E+02    0.50000E-01  0.50000E-01 -0.10000E+00  0.00000E+00  0.00000E+00  0.00000E+00    0.21445E+02  0.18512E+02 -0.39958E+02  0.50351E+01  0.51823E+01 -0.77187E+01      982.00
  0.11906E+00  0.62876E+02    0.62500E-01  0.62500E-01 -0.12500E+00  0.00000E+00  0.00000E+00  0.00000E+00    0.21516E+02  0.18575E+02 -0.40091E+02  0.50442E+01  0.51672E+01 -0.76180E+01      982.00
  0.14297E+00  0.63115E+02    0.75000E-01  0.75000E-01 -0.15000E+00  0.00000E+00  0.00000E+00  0.00000E+00    0.21625E+02  0.18642E+02 -0.40268E+02  0.50454E+01  0.51600E+01 -0.75767E+01      982.00
  0.16690E+00  0.63356E+02    0.87500E-01  0.87500E-01 -0.17500E+00  0.00000E+00  0.00000E+00  0.00000E+00    0.21735E+02  0.18701E+02 -0.40435E+02  0.50368E+01  0.51545E+01 -0.75819E+01      982.00
  0.19083E+00  0.63635E+02    0.10000E+00  0.10000E+00 -0.20000E+00  0.00000E+00  0.00000E+00  0.00000E+00    0.21853E+02  0.18771E+02 -0.40625E+02  0.50228E+01  0.51472E+01 -0.76112E+01      982.00
  0.21477E+00  0.63914E+02    0.11250E+00  0.11250E+00 -0.22500E+00  0.00000E+00  0.00000E+00  0.00000E+00    0.21965E+02  0.18849E+02 -0.40814E+02  0.50023E+01  0.51344E+01 -0.76485E+01      982.00
  0.23872E+00  0.64229E+02    0.12500E+00  0.12500E+00 -0.25000E+00  0.00000E+00  0.00000E+00  0.00000E+00    0.22080E+02  0.18945E+02 -0.41025E+02  0.49833E+01  0.51236E+01 -0.77014E+01      982.00
  0.26267E+00  0.64556E+02    0.13750E+00  0.13750E+00 -0.27500E+00  0.00000E+00  0.00000E+00  0.00000E+00    0.22190E+02  0.19054E+02 -0.41244E+02  0.49633E+01  0.51111E+01 -0.77572E+01      982.00
  0.28663E+00  0.64884E+02    0.15000E+00  0.15000E+00 -0.30000E+00  0.00000E+00  0.00000E+00  0.00000E+00    0.22290E+02  0.19174E+02 -0.41463E+02  0.49433E+01  0.50981E+01 -0.78145E+01      982.00
  0.31059E+00  0.65203E+02    0.16250E+00  0.16250E+00 -0.32500E+00  0.00000E+00  0.00000E+00  0.00000E+00    0.22374E+02  0.19304E+02 -0.41678E+02  0.49214E+01  0.50840E+01 -0.78687E+01      982.00
  0.33456E+00  0.65521E+02    0.17500E+00  0.17500E+00 -0.35000E+00  0.00000E+00  0.00000E+00  0.00000E+00    0.22450E+02  0.19444E+02 -0.41893E+02  0.49000E+01  0.50710E+01 -0.79195E+01      982.00
  0.35854E+00  0.65825E+02    0.18750E+00  0.18750E+00 -0.37500E+00  0.00000E+00  0.00000E+00  0.00000E+00    0.22511E+02  0.19589E+02 -0.42100E+02  0.48787E+01  0.50605E+01 -0.79681E+01      982.00
  0.38252E+00  0.66105E+02    0.20000E+00  0.20000E+00 -0.40000E+00  0.00000E+00  0.00000E+00  0.00000E+00    0.22563E+02  0.19728E+02 -0.42291E+02  0.48575E+01  0.50530E+01 -0.80069E+01      982.00
  0.40652E+00  0.66348E+02    0.21250E+00  0.21250E+00 -0.42500E+00  0.00000E+00  0.00000E+00  0.00000E+00    0.22603E+02  0.19853E+02 -0.42456E+02  0.48359E+01  0.50498E+01 -0.80429E+01      982.00
  0.43051E+00  0.66608E+02    0.22500E+00  0.22500E+00 -0.45000E+00  0.00000E+00  0.00000E+00  0.00000E+00    0.22630E+02  0.20005E+02 -0.42635E+02  0.48121E+01  0.50469E+01 -0.80780E+01      982.00
  0.45451E+00  0.66849E+02    0.23750E+00  0.23750E+00 -0.47500E+00  0.00000E+00  0.00000E+00  0.00000E+00    0.22642E+02  0.20159E+02 -0.42801E+02  0.47877E+01  0.50444E+01 -0.81067E+01      982.00
  0.47852E+00  0.67070E+02    0.25000E+00  0.25000E+00 -0.50000E+00  0.00000E+00  0.00000E+00  0.00000E+00    0.22641E+02  0.20314E+02 -0.42955E+02  0.47625E+01  0.50438E+01 -0.81300E+01      982.00
  0.50254E+00  0.67269E+02    0.26250E+00  0.26250E+00 -0.52500E+00  0.00000E+00  0.00000E+00  0.00000E+00    0.22627E+02  0.20469E+02 -0.43095E+02  0.47371E+01  0.50447E+01 -0.81487E+01      982.00
  0.52657E+00  0.67455E+02    0.27500E+00  0.27500E+00 -0.55000E+00  0.00000E+00  0.00000E+00  0.00000E+00    0.22602E+02  0.20625E+02 -0.43227E+02  0.47104E+01  0.50480E+01 -0.81623E+01      982.00
  0.55060E+00  0.67622E+02    0.28750E+00  0.28750E+00 -0.57500E+00  0.00000E+00  0.00000E+00  0.00000E+00    0.22566E+02  0.20780E+02 -0.43347E+02  0.46831E+01  0.50524E+01 -0.81713E+01      982.00
  0.57464E+00  0.67768E+02    0.30000E+00  0.30000E+00 -0.60000E+00  0.00000E+00  0.00000E+00  0.00000E+00    0.22518E+02  0.20935E+02 -0.43453E+02  0.46556E+01  0.50579E+01 -0.81762E+01      982.00
  0.59868E+00  0.67908E+02    0.31250E+00  0.31250E+00 -0.62500E+00  0.00000E+00  0.00000E+00  0.00000E+00    0.22464E+02  0.21092E+02 -0.43555E+02  0.46259E+01  0.50639E+01 -0.81755E+01      982.00
  0.62273E+00  0.68022E+02    0.32500E+00  0.32500E+00 -0.65000E+00  0.00000E+00  0.00000E+00  0.00000E+00    0.22397E+02  0.21244E+02 -0.43641E+02  0.45963E+01  0.50720E+01 -0.81716E+01      982.00
  0.64679E+00  0.68124E+02    0.33750E+00  0.33750E+00 -0.67500E+00  0.00000E+00  0.00000E+00  0.00000E+00    0.22331E+02  0.21386E+02 -0.43717E+02  0.45693E+01  0.50778E+01 -0.81674E+01      982.00
  0.67086E+00  0.68219E+02    0.35000E+00  0.35000E+00 -0.70000E+00  0.00000E+00  0.00000E+00  0.00000E+00    0.22250E+02  0.21539E+02 -0.43789E+02  0.45388E+01  0.50877E+01 -0.81579E+01      982.00
  0.69493E+00  0.68298E+02    0.36250E+00  0.36250E+00 -0.72500E+00  0.00000E+00  0.00000E+00  0.00000E+00    0.22145E+02  0.21708E+02 -0.43852E+02  0.45113E+01  0.50983E+01 -0.81365E+01      982.00
  0.71900E+00  0.68373E+02    0.37500E+00  0.37500E+00 -0.75000E+00  0.00000E+00  0.00000E+00  0.00000E+00    0.22050E+02  0.21862E+02 -0.43912E+02  0.44801E+01  0.51088E+01 -0.81199E+01      982.00
  0.74309E+00  0.68441E+02    0.38750E+00  0.38750E+00 -0.77500E+00  0.00000E+00  0.00000E+00  0.00000E+00    0.21951E+02  0.22016E+02 -0.43966E+02  0.44476E+01  0.51209E+01 -0.80992E+01      982.00
  0.76718E+00  0.68495E+02    0.40000E+00  0.40000E+00 -0.80000E+00  0.00000E+00  0.00000E+00  0.00000E+00    0.21844E+02  0.22168E+02 -0.44012E+02  0.44146E+01  0.51327E+01 -0.80761E+01      982.00
  0.79127E+00  0.68542E+02    0.41250E+00  0.41250E+00 -0.82500E+00  0.00000E+00  0.00000E+00  0.00000E+00    0.21732E+02  0.22319E+02 -0.44052E+02  0.43813E+01  0.51467E+01 -0.80504E+01      982.00
  0.81538E+00  0.68584E+02    0.42500E+00  0.42500E+00 -0.85000E+00  0.00000E+00  0.00000E+00  0.00000E+00    0.21616E+02  0.22472E+02 -0.44088E+02  0.43485E+01  0.51596E+01 -0.80228E+01      982.00
  0.83948E+00  0.68618E+02    0.43750E+00  0.43750E+00 -0.87500E+00  0.00000E+00  0.00000E+00  0.00000E+00    0.21495E+02  0.22625E+02 -0.44120E+02  0.43134E+01  0.51725E+01 -0.79911E+01      982.00
  0.86359E+00  0.68649E+02    0.45000E+00  0.45000E+00 -0.90000E+00  0.00000E+00  0.00000E+00  0.00000E+00    0.21371E+02  0.22779E+02 -0.44150E+02  0.42801E+01  0.51866E+01 -0.79565E+01      982.00
  0.88771E+00  0.68611E+02    0.46250E+00  0.46250E+00 -0.92500E+00  0.00000E+00  0.00000E+00  0.00000E+00    0.21238E+02  0.22902E+02 -0.44140E+02  0.42218E+01  0.51745E+01 -0.79117E+01      982.00
  0.91184E+00  0.68560E+02    0.47500E+00  0.47500E+00 -0.95000E+00  0.00000E+00  0.00000E+00  0.00000E+00    0.21066E+02  0.23062E+02 -0.44128E+02  0.41569E+01  0.51646E+01 -0.78383E+01      982.00
  0.93597E+00  0.68519E+02    0.48750E+00  0.48750E+00 -0.97500E+00  0.00000E+00  0.00000E+00  0.00000E+00    0.20928E+02  0.23187E+02 -0.44114E+02  0.41075E+01  0.51576E+01 -0.77887E+01      982.00
  0.96012E+00  0.68479E+02    0.50000E+00  0.50000E+00 -0.10000E+01  0.00000E+00  0.00000E+00  0.00000E+00    0.20789E+02  0.23312E+02 -0.44101E+02  0.40584E+01  0.51515E+01 -0.77364E+01      982.00
