          Evm          Svm            E11          E22          E33          E23          E13          E12         SDEV11       SDEV22       SDEV33       SDEV23       SDEV13       SDEV12      TEMP
  0.00000E+00  0.54458E+02    0.00000E+00  0.00000E+00  0.00000E+00  0.00000E+00  0.00000E+00  0.00000E+00    0.20059E+02  0.13205E+02 -0.33265E+02  0.44404E+01  0.61080E+01 -0.94808E+01      982.00
  0.22906E-01  0.54930E+02    0.12500E-01  0.12500E-01 -0.25000E-01  0.00000E+00  0.00000E+00  0.00000E+00    0.19811E+02  0.13697E+02 -0.33508E+02  0.45574E+01  0.63701E+01 -0.96436E+01      982.00
  0.45782E-01  0.55363E+02    0.25000E-01  0.25000E-01 -0.50000E-01  0.00000E+00  0.00000E+00  0.00000E+00    0.19651E+02  0.14105E+02 -0.33756E+02  0.46008E+01  0.65641E+01 -0.97543E+01      982.00
  0.68646E-01  0.55777E+02    0.37500E-01  0.37500E-01 -0.75000E-01  0.00000E+00  0.00000E+00  0.00000E+00    0.19568E+02  0.14443E+02 -0.34010E+02  0.46116E+01  0.66989E+01 -0.98373E+01      982.00
  0.91512E-01  0.56182E+02    0.50000E-01  0.50000E-01 -0.10000E+00  0.00000E+00  0.00000E+00  0.00000E+00    0.19548E+02  0.14724E+02 -0.34272E+02  0.46056E+01  0.67855E+01 -0.99069E+01      982.00
  0.11439E+00  0.56592E+02    0.62500E-01  0.62500E-01 -0.12500E+00  0.00000E+00  0.00000E+00  0.00000E+00    0.19584E+02  0.14960E+02 -0.34544E+02  0.45902E+01  0.68338E+01 -0.99735E+01      982.00
  0.13728E+00  0.57022E+02    0.75000E-01  0.75000E-01 -0.15000E+00  0.00000E+00  0.00000E+00  0.00000E+00    0.19667E+02  0.15162E+02 -0.34829E+02  0.45719E+01  0.68578E+01 -0.10051E+02      982.00
  0.16018E+00  0.57479E+02    0.87500E-01  0.87500E-01 -0.17500E+00  0.00000E+00  0.00000E+00  0.00000E+00    0.19808E+02  0.15330E+02 -0.35137E+02  0.45462E+01  0.68525E+01 -0.10132E+02      982.00
  0.18311E+00  0.57927E+02    0.10000E+00  0.10000E+00 -0.20000E+00  0.00000E+00  0.00000E+00  0.00000E+00    0.19979E+02  0.15469E+02 -0.35448E+02  0.45178E+01  0.68213E+01 -0.10202E+02      982.00
  0.20605E+00  0.58391E+02    0.11250E+00  0.11250E+00 -0.22500E+00  0.00000E+00  0.00000E+00  0.00000E+00    0.20172E+02  0.15597E+02 -0.35769E+02  0.44928E+01  0.67768E+01 -0.10276E+02      982.00
  0.22903E+00  0.58832E+02    0.12500E+00  0.12500E+00 -0.25000E+00  0.00000E+00  0.00000E+00  0.00000E+00    0.20354E+02  0.15727E+02 -0.36081E+02  0.44741E+01  0.67191E+01 -0.10335E+02      982.00
  0.25202E+00  0.59320E+02    0.13750E+00  0.13750E+00 -0.27500E+00  0.00000E+00  0.00000E+00  0.00000E+00    0.20569E+02  0.15848E+02 -0.36417E+02  0.44588E+01  0.66602E+01 -0.10414E+02      982.00
  0.27505E+00  0.59827E+02    0.15000E+00  0.15000E+00 -0.30000E+00  0.00000E+00  0.00000E+00  0.00000E+00    0.20804E+02  0.15960E+02 -0.36764E+02  0.44478E+01  0.65973E+01 -0.10498E+02      982.00
  0.29809E+00  0.60326E+02    0.16250E+00  0.16250E+00 -0.32500E+00  0.00000E+00  0.00000E+00  0.00000E+00    0.21032E+02  0.16077E+02 -0.37109E+02  0.44413E+01  0.65293E+01 -0.10572E+02      982.00
  0.32116E+00  0.60826E+02    0.17500E+00  0.17500E+00 -0.35000E+00  0.00000E+00  0.00000E+00  0.00000E+00    0.21259E+02  0.16195E+02 -0.37455E+02  0.44399E+01  0.64598E+01 -0.10642E+02      982.00
  0.34425E+00  0.61322E+02    0.18750E+00  0.18750E+00 -0.37500E+00  0.00000E+00  0.00000E+00  0.00000E+00    0.21484E+02  0.16315E+02 -0.37799E+02  0.44427E+01  0.63894E+01 -0.10707E+02      982.00
  0.36737E+00  0.61839E+02    0.20000E+00  0.20000E+00 -0.40000E+00  0.00000E+00  0.00000E+00  0.00000E+00    0.21721E+02  0.16437E+02 -0.38158E+02  0.44522E+01  0.63133E+01 -0.10770E+02      982.00
  0.39050E+00  0.62315E+02    0.21250E+00  0.21250E+00 -0.42500E+00  0.00000E+00  0.00000E+00  0.00000E+00    0.21932E+02  0.16560E+02 -0.38493E+02  0.44622E+01  0.62410E+01 -0.10819E+02      982.00
  0.41367E+00  0.62778E+02    0.22500E+00  0.22500E+00 -0.45000E+00  0.00000E+00  0.00000E+00  0.00000E+00    0.22135E+02  0.16684E+02 -0.38820E+02  0.44745E+01  0.61697E+01 -0.10860E+02      982.00
  0.43686E+00  0.63225E+02    0.23750E+00  0.23750E+00 -0.47500E+00  0.00000E+00  0.00000E+00  0.00000E+00    0.22329E+02  0.16809E+02 -0.39138E+02  0.44882E+01  0.60990E+01 -0.10894E+02      982.00
  0.46007E+00  0.63629E+02    0.25000E+00  0.25000E+00 -0.50000E+00  0.00000E+00  0.00000E+00  0.00000E+00    0.22503E+02  0.16927E+02 -0.39429E+02  0.44940E+01  0.60363E+01 -0.10915E+02      982.00
  0.48331E+00  0.64043E+02    0.26250E+00  0.26250E+00 -0.52500E+00  0.00000E+00  0.00000E+00  0.00000E+00    0.22680E+02  0.17048E+02 -0.39728E+02  0.45076E+01  0.59678E+01 -0.10935E+02      982.00
  0.50657E+00  0.64438E+02    0.27500E+00  0.27500E+00 -0.55000E+00  0.00000E+00  0.00000E+00  0.00000E+00    0.22849E+02  0.17167E+02 -0.40016E+02  0.45214E+01  0.58993E+01 -0.10946E+02      982.00
  0.52986E+00  0.64814E+02    0.28750E+00  0.28750E+00 -0.57500E+00  0.00000E+00  0.00000E+00  0.00000E+00    0.23008E+02  0.17284E+02 -0.40292E+02  0.45345E+01  0.58310E+01 -0.10951E+02      982.00
  0.55317E+00  0.65169E+02    0.30000E+00  0.30000E+00 -0.60000E+00  0.00000E+00  0.00000E+00  0.00000E+00    0.23158E+02  0.17398E+02 -0.40556E+02  0.45467E+01  0.57630E+01 -0.10949E+02      982.00
  0.57651E+00  0.65506E+02    0.31250E+00  0.31250E+00 -0.62500E+00  0.00000E+00  0.00000E+00  0.00000E+00    0.23300E+02  0.17509E+02 -0.40809E+02  0.45579E+01  0.56953E+01 -0.10941E+02      982.00
  0.59987E+00  0.65804E+02    0.32500E+00  0.32500E+00 -0.65000E+00  0.00000E+00  0.00000E+00  0.00000E+00    0.23426E+02  0.17608E+02 -0.41035E+02  0.45665E+01  0.56332E+01 -0.10931E+02      982.00
  0.62325E+00  0.66105E+02    0.33750E+00  0.33750E+00 -0.67500E+00  0.00000E+00  0.00000E+00  0.00000E+00    0.23554E+02  0.17711E+02 -0.41265E+02  0.45750E+01  0.55664E+01 -0.10913E+02      982.00
  0.64666E+00  0.66388E+02    0.35000E+00  0.35000E+00 -0.70000E+00  0.00000E+00  0.00000E+00  0.00000E+00    0.23674E+02  0.17810E+02 -0.41484E+02  0.45826E+01  0.54999E+01 -0.10891E+02      982.00
  0.67010E+00  0.66654E+02    0.36250E+00  0.36250E+00 -0.72500E+00  0.00000E+00  0.00000E+00  0.00000E+00    0.23787E+02  0.17904E+02 -0.41691E+02  0.45890E+01  0.54339E+01 -0.10866E+02      982.00
  0.69355E+00  0.66904E+02    0.37500E+00  0.37500E+00 -0.75000E+00  0.00000E+00  0.00000E+00  0.00000E+00    0.23895E+02  0.17994E+02 -0.41888E+02  0.45942E+01  0.53684E+01 -0.10838E+02      982.00
  0.71703E+00  0.67138E+02    0.38750E+00  0.38750E+00 -0.77500E+00  0.00000E+00  0.00000E+00  0.00000E+00    0.23996E+02  0.18078E+02 -0.42075E+02  0.45984E+01  0.53036E+01 -0.10806E+02      982.00
  0.74053E+00  0.67358E+02    0.40000E+00  0.40000E+00 -0.80000E+00  0.00000E+00  0.00000E+00  0.00000E+00    0.24093E+02  0.18158E+02 -0.42251E+02  0.46016E+01  0.52394E+01 -0.10773E+02      982.00
  0.76405E+00  0.67563E+02    0.41250E+00  0.41250E+00 -0.82500E+00  0.00000E+00  0.00000E+00  0.00000E+00    0.24186E+02  0.18232E+02 -0.42418E+02  0.46040E+01  0.51760E+01 -0.10738E+02      982.00
  0.78760E+00  0.67764E+02    0.42500E+00  0.42500E+00 -0.85000E+00  0.00000E+00  0.00000E+00  0.00000E+00    0.24280E+02  0.18300E+02 -0.42580E+02  0.46001E+01  0.51212E+01 -0.10703E+02      982.00
  0.81116E+00  0.67944E+02    0.43750E+00  0.43750E+00 -0.87500E+00  0.00000E+00  0.00000E+00  0.00000E+00    0.24364E+02  0.18364E+02 -0.42728E+02  0.46012E+01  0.50601E+01 -0.10665E+02      982.00
  0.83474E+00  0.68112E+02    0.45000E+00  0.45000E+00 -0.90000E+00  0.00000E+00  0.00000E+00  0.00000E+00    0.24445E+02  0.18423E+02 -0.42869E+02  0.46022E+01  0.49994E+01 -0.10626E+02      982.00
  0.85834E+00  0.68194E+02    0.46250E+00  0.46250E+00 -0.92500E+00  0.00000E+00  0.00000E+00  0.00000E+00    0.24502E+02  0.18459E+02 -0.42962E+02  0.45742E+01  0.49162E+01 -0.10566E+02      982.00
  0.88197E+00  0.68274E+02    0.47500E+00  0.47500E+00 -0.95000E+00  0.00000E+00  0.00000E+00  0.00000E+00    0.24556E+02  0.18494E+02 -0.43051E+02  0.45515E+01  0.48379E+01 -0.10509E+02      982.00
  0.90561E+00  0.68348E+02    0.48750E+00  0.48750E+00 -0.97500E+00  0.00000E+00  0.00000E+00  0.00000E+00    0.24609E+02  0.18525E+02 -0.43134E+02  0.45298E+01  0.47617E+01 -0.10455E+02      982.00
  0.92928E+00  0.68418E+02    0.50000E+00  0.50000E+00 -0.10000E+01  0.00000E+00  0.00000E+00  0.00000E+00    0.24660E+02  0.18552E+02 -0.43213E+02  0.45089E+01  0.46876E+01 -0.10403E+02      982.00
