          Evm          Svm            E11          E22          E33          E23          E13          E12         SDEV11       SDEV22       SDEV33       SDEV23       SDEV13       SDEV12      TEMP
  0.00000E+00  0.64902E+02    0.00000E+00  0.00000E+00  0.00000E+00  0.00000E+00  0.00000E+00  0.00000E+00    0.23671E+02  0.17838E+02 -0.41509E+02  0.64367E+01  0.13818E+01 -0.77461E+01      982.00
  0.23984E-01  0.64912E+02    0.12500E-01  0.12500E-01 -0.25000E-01  0.00000E+00  0.00000E+00  0.00000E+00    0.24117E+02  0.17476E+02 -0.41593E+02  0.61530E+01  0.14415E+01 -0.74894E+01      982.00
  0.48012E-01  0.64831E+02    0.25000E-01  0.25000E-01 -0.50000E-01  0.00000E+00  0.00000E+00  0.00000E+00    0.24428E+02  0.17207E+02 -0.41635E+02  0.58769E+01  0.14873E+01 -0.71493E+01      982.00
  0.72095E-01  0.64711E+02    0.37500E-01  0.37500E-01 -0.75000E-01  0.00000E+00  0.00000E+00  0.00000E+00    0.24685E+02  0.16973E+02 -0.41658E+02  0.55799E+01  0.16239E+01 -0.67564E+01      982.00
  0.96236E-01  0.64670E+02    0.50000E-01  0.50000E-01 -0.10000E+00  0.00000E+00  0.00000E+00  0.00000E+00    0.24949E+02  0.16766E+02 -0.41715E+02  0.53084E+01  0.18727E+01 -0.63680E+01      982.00
  0.12042E+00  0.64723E+02    0.62500E-01  0.62500E-01 -0.12500E+00  0.00000E+00  0.00000E+00  0.00000E+00    0.25227E+02  0.16580E+02 -0.41807E+02  0.50839E+01  0.21721E+01 -0.60196E+01      982.00
  0.14465E+00  0.64851E+02    0.75000E-01  0.75000E-01 -0.15000E+00  0.00000E+00  0.00000E+00  0.00000E+00    0.25507E+02  0.16417E+02 -0.41924E+02  0.49102E+01  0.24641E+01 -0.57293E+01      982.00
  0.16889E+00  0.65038E+02    0.87500E-01  0.87500E-01 -0.17500E+00  0.00000E+00  0.00000E+00  0.00000E+00    0.25794E+02  0.16267E+02 -0.42061E+02  0.47766E+01  0.27203E+01 -0.54982E+01      982.00
  0.19314E+00  0.65271E+02    0.10000E+00  0.10000E+00 -0.20000E+00  0.00000E+00  0.00000E+00  0.00000E+00    0.26086E+02  0.16129E+02 -0.42214E+02  0.46757E+01  0.29309E+01 -0.53230E+01      982.00
  0.21739E+00  0.65538E+02    0.11250E+00  0.11250E+00 -0.22500E+00  0.00000E+00  0.00000E+00  0.00000E+00    0.26375E+02  0.16006E+02 -0.42381E+02  0.46029E+01  0.30940E+01 -0.51963E+01      982.00
  0.24164E+00  0.65831E+02    0.12500E+00  0.12500E+00 -0.25000E+00  0.00000E+00  0.00000E+00  0.00000E+00    0.26674E+02  0.15884E+02 -0.42558E+02  0.45458E+01  0.32188E+01 -0.51057E+01      982.00
  0.26589E+00  0.66140E+02    0.13750E+00  0.13750E+00 -0.27500E+00  0.00000E+00  0.00000E+00  0.00000E+00    0.26974E+02  0.15768E+02 -0.42742E+02  0.45022E+01  0.33099E+01 -0.50428E+01      982.00
  0.29012E+00  0.66452E+02    0.15000E+00  0.15000E+00 -0.30000E+00  0.00000E+00  0.00000E+00  0.00000E+00    0.27261E+02  0.15664E+02 -0.42925E+02  0.44738E+01  0.33720E+01 -0.50028E+01      982.00
  0.31434E+00  0.66766E+02    0.16250E+00  0.16250E+00 -0.32500E+00  0.00000E+00  0.00000E+00  0.00000E+00    0.27549E+02  0.15560E+02 -0.43109E+02  0.44491E+01  0.34144E+01 -0.49739E+01      982.00
  0.33856E+00  0.67072E+02    0.17500E+00  0.17500E+00 -0.35000E+00  0.00000E+00  0.00000E+00  0.00000E+00    0.27820E+02  0.15467E+02 -0.43287E+02  0.44358E+01  0.34387E+01 -0.49569E+01      982.00
  0.36276E+00  0.67367E+02    0.18750E+00  0.18750E+00 -0.37500E+00  0.00000E+00  0.00000E+00  0.00000E+00    0.28085E+02  0.15373E+02 -0.43458E+02  0.44215E+01  0.34518E+01 -0.49422E+01      982.00
  0.38695E+00  0.67648E+02    0.20000E+00  0.20000E+00 -0.40000E+00  0.00000E+00  0.00000E+00  0.00000E+00    0.28330E+02  0.15291E+02 -0.43621E+02  0.44176E+01  0.34537E+01 -0.49337E+01      982.00
  0.41113E+00  0.67910E+02    0.21250E+00  0.21250E+00 -0.42500E+00  0.00000E+00  0.00000E+00  0.00000E+00    0.28567E+02  0.15206E+02 -0.43773E+02  0.44095E+01  0.34507E+01 -0.49233E+01      982.00
  0.43530E+00  0.68159E+02    0.22500E+00  0.22500E+00 -0.45000E+00  0.00000E+00  0.00000E+00  0.00000E+00    0.28784E+02  0.15133E+02 -0.43917E+02  0.44110E+01  0.34402E+01 -0.49160E+01      982.00
  0.45946E+00  0.68391E+02    0.23750E+00  0.23750E+00 -0.47500E+00  0.00000E+00  0.00000E+00  0.00000E+00    0.28987E+02  0.15064E+02 -0.44050E+02  0.44139E+01  0.34258E+01 -0.49080E+01      982.00
  0.48362E+00  0.68605E+02    0.25000E+00  0.25000E+00 -0.50000E+00  0.00000E+00  0.00000E+00  0.00000E+00    0.29180E+02  0.14994E+02 -0.44174E+02  0.44111E+01  0.34095E+01 -0.48973E+01      982.00
  0.50776E+00  0.68804E+02    0.26250E+00  0.26250E+00 -0.52500E+00  0.00000E+00  0.00000E+00  0.00000E+00    0.29357E+02  0.14931E+02 -0.44288E+02  0.44162E+01  0.33903E+01 -0.48874E+01      982.00
  0.53190E+00  0.68978E+02    0.27500E+00  0.27500E+00 -0.55000E+00  0.00000E+00  0.00000E+00  0.00000E+00    0.29525E+02  0.14862E+02 -0.44386E+02  0.44130E+01  0.33742E+01 -0.48750E+01      982.00
  0.55603E+00  0.69148E+02    0.28750E+00  0.28750E+00 -0.57500E+00  0.00000E+00  0.00000E+00  0.00000E+00    0.29680E+02  0.14803E+02 -0.44483E+02  0.44191E+01  0.33525E+01 -0.48633E+01      982.00
  0.58016E+00  0.69303E+02    0.30000E+00  0.30000E+00 -0.60000E+00  0.00000E+00  0.00000E+00  0.00000E+00    0.29824E+02  0.14747E+02 -0.44571E+02  0.44254E+01  0.33301E+01 -0.48508E+01      982.00
  0.60427E+00  0.69440E+02    0.31250E+00  0.31250E+00 -0.62500E+00  0.00000E+00  0.00000E+00  0.00000E+00    0.29963E+02  0.14684E+02 -0.44647E+02  0.44238E+01  0.33123E+01 -0.48355E+01      982.00
  0.62839E+00  0.69572E+02    0.32500E+00  0.32500E+00 -0.65000E+00  0.00000E+00  0.00000E+00  0.00000E+00    0.30090E+02  0.14631E+02 -0.44721E+02  0.44298E+01  0.32889E+01 -0.48219E+01      982.00
  0.65249E+00  0.69689E+02    0.33750E+00  0.33750E+00 -0.67500E+00  0.00000E+00  0.00000E+00  0.00000E+00    0.30206E+02  0.14580E+02 -0.44787E+02  0.44346E+01  0.32657E+01 -0.48072E+01      982.00
  0.67659E+00  0.69800E+02    0.35000E+00  0.35000E+00 -0.70000E+00  0.00000E+00  0.00000E+00  0.00000E+00    0.30327E+02  0.14520E+02 -0.44847E+02  0.44345E+01  0.32446E+01 -0.47875E+01      982.00
  0.70068E+00  0.69889E+02    0.36250E+00  0.36250E+00 -0.72500E+00  0.00000E+00  0.00000E+00  0.00000E+00    0.30417E+02  0.14479E+02 -0.44896E+02  0.44379E+01  0.32259E+01 -0.47790E+01      982.00
  0.72477E+00  0.69983E+02    0.37500E+00  0.37500E+00 -0.75000E+00  0.00000E+00  0.00000E+00  0.00000E+00    0.30514E+02  0.14433E+02 -0.44947E+02  0.44436E+01  0.32019E+01 -0.47649E+01      982.00
  0.74886E+00  0.70068E+02    0.38750E+00  0.38750E+00 -0.77500E+00  0.00000E+00  0.00000E+00  0.00000E+00    0.30617E+02  0.14375E+02 -0.44992E+02  0.44448E+01  0.31801E+01 -0.47419E+01      982.00
  0.77294E+00  0.70149E+02    0.40000E+00  0.40000E+00 -0.80000E+00  0.00000E+00  0.00000E+00  0.00000E+00    0.30706E+02  0.14330E+02 -0.45036E+02  0.44491E+01  0.31559E+01 -0.47284E+01      982.00
  0.79701E+00  0.70222E+02    0.41250E+00  0.41250E+00 -0.82500E+00  0.00000E+00  0.00000E+00  0.00000E+00    0.30787E+02  0.14287E+02 -0.45074E+02  0.44534E+01  0.31320E+01 -0.47151E+01      982.00
  0.82108E+00  0.70288E+02    0.42500E+00  0.42500E+00 -0.85000E+00  0.00000E+00  0.00000E+00  0.00000E+00    0.30864E+02  0.14245E+02 -0.45109E+02  0.44578E+01  0.31083E+01 -0.47021E+01      982.00
  0.84515E+00  0.70357E+02    0.43750E+00  0.43750E+00 -0.87500E+00  0.00000E+00  0.00000E+00  0.00000E+00    0.30962E+02  0.14182E+02 -0.45143E+02  0.44607E+01  0.30749E+01 -0.46749E+01      982.00
  0.86921E+00  0.70412E+02    0.45000E+00  0.45000E+00 -0.90000E+00  0.00000E+00  0.00000E+00  0.00000E+00    0.31031E+02  0.14140E+02 -0.45171E+02  0.44628E+01  0.30515E+01 -0.46629E+01      982.00
  0.89327E+00  0.70412E+02    0.46250E+00  0.46250E+00 -0.92500E+00  0.00000E+00  0.00000E+00  0.00000E+00    0.31047E+02  0.14122E+02 -0.45169E+02  0.44564E+01  0.30195E+01 -0.46705E+01      982.00
  0.91732E+00  0.70403E+02    0.47500E+00  0.47500E+00 -0.95000E+00  0.00000E+00  0.00000E+00  0.00000E+00    0.31074E+02  0.14088E+02 -0.45163E+02  0.44455E+01  0.29823E+01 -0.46548E+01      982.00
  0.94138E+00  0.70397E+02    0.48750E+00  0.48750E+00 -0.97500E+00  0.00000E+00  0.00000E+00  0.00000E+00    0.31105E+02  0.14050E+02 -0.45156E+02  0.44364E+01  0.29504E+01 -0.46424E+01      982.00
  0.96543E+00  0.70391E+02    0.50000E+00  0.50000E+00 -0.10000E+01  0.00000E+00  0.00000E+00  0.00000E+00    0.31135E+02  0.14013E+02 -0.45148E+02  0.44271E+01  0.29197E+01 -0.46300E+01      982.00
