          Evm          Svm            E11          E22          E33          E23          E13          E12         SDEV11       SDEV22       SDEV33       SDEV23       SDEV13       SDEV12      TEMP
  0.00000E+00  0.56398E+02    0.00000E+00  0.00000E+00  0.00000E+00  0.00000E+00  0.00000E+00  0.00000E+00    0.18140E+02  0.15223E+02 -0.33363E+02 -0.16188E+01  0.52460E+01  0.13897E+02      982.00
  0.22184E-01  0.56353E+02    0.12500E-01  0.12500E-01 -0.25000E-01  0.00000E+00  0.00000E+00  0.00000E+00    0.17888E+02  0.15491E+02 -0.33380E+02 -0.18064E+01  0.48290E+01  0.13961E+02      982.00
  0.44396E-01  0.56442E+02    0.25000E-01  0.25000E-01 -0.50000E-01  0.00000E+00  0.00000E+00  0.00000E+00    0.17741E+02  0.15700E+02 -0.33441E+02 -0.19476E+01  0.44907E+01  0.14077E+02      982.00
  0.66615E-01  0.56651E+02    0.37500E-01  0.37500E-01 -0.75000E-01  0.00000E+00  0.00000E+00  0.00000E+00    0.17663E+02  0.15885E+02 -0.33547E+02 -0.20630E+01  0.41933E+01  0.14251E+02      982.00
  0.88821E-01  0.56961E+02    0.50000E-01  0.50000E-01 -0.10000E+00  0.00000E+00  0.00000E+00  0.00000E+00    0.17639E+02  0.16053E+02 -0.33692E+02 -0.21583E+01  0.39301E+01  0.14471E+02      982.00
  0.11100E+00  0.57344E+02    0.62500E-01  0.62500E-01 -0.12500E+00  0.00000E+00  0.00000E+00  0.00000E+00    0.17658E+02  0.16208E+02 -0.33865E+02 -0.22337E+01  0.37011E+01  0.14722E+02      982.00
  0.13315E+00  0.57778E+02    0.75000E-01  0.75000E-01 -0.15000E+00  0.00000E+00  0.00000E+00  0.00000E+00    0.17702E+02  0.16358E+02 -0.34060E+02 -0.22979E+01  0.34956E+01  0.14992E+02      982.00
  0.15525E+00  0.58242E+02    0.87500E-01  0.87500E-01 -0.17500E+00  0.00000E+00  0.00000E+00  0.00000E+00    0.17763E+02  0.16505E+02 -0.34268E+02 -0.23506E+01  0.33139E+01  0.15267E+02      982.00
  0.17732E+00  0.58718E+02    0.10000E+00  0.10000E+00 -0.20000E+00  0.00000E+00  0.00000E+00  0.00000E+00    0.17837E+02  0.16646E+02 -0.34483E+02 -0.23886E+01  0.31568E+01  0.15539E+02      982.00
  0.19934E+00  0.59192E+02    0.11250E+00  0.11250E+00 -0.22500E+00  0.00000E+00  0.00000E+00  0.00000E+00    0.17912E+02  0.16787E+02 -0.34699E+02 -0.24220E+01  0.30157E+01  0.15799E+02      982.00
  0.22132E+00  0.59652E+02    0.12500E+00  0.12500E+00 -0.25000E+00  0.00000E+00  0.00000E+00  0.00000E+00    0.17986E+02  0.16926E+02 -0.34912E+02 -0.24481E+01  0.28896E+01  0.16042E+02      982.00
  0.24327E+00  0.60105E+02    0.13750E+00  0.13750E+00 -0.27500E+00  0.00000E+00  0.00000E+00  0.00000E+00    0.18062E+02  0.17061E+02 -0.35124E+02 -0.24637E+01  0.27851E+01  0.16275E+02      982.00
  0.26518E+00  0.60537E+02    0.15000E+00  0.15000E+00 -0.30000E+00  0.00000E+00  0.00000E+00  0.00000E+00    0.18135E+02  0.17193E+02 -0.35328E+02 -0.24743E+01  0.26937E+01  0.16490E+02      982.00
  0.28707E+00  0.60933E+02    0.16250E+00  0.16250E+00 -0.32500E+00  0.00000E+00  0.00000E+00  0.00000E+00    0.18197E+02  0.17323E+02 -0.35520E+02 -0.24835E+01  0.26065E+01  0.16679E+02      982.00
  0.30893E+00  0.61316E+02    0.17500E+00  0.17500E+00 -0.35000E+00  0.00000E+00  0.00000E+00  0.00000E+00    0.18259E+02  0.17448E+02 -0.35708E+02 -0.24861E+01  0.25365E+01  0.16858E+02      982.00
  0.33077E+00  0.61673E+02    0.18750E+00  0.18750E+00 -0.37500E+00  0.00000E+00  0.00000E+00  0.00000E+00    0.18317E+02  0.17568E+02 -0.35885E+02 -0.24855E+01  0.24747E+01  0.17018E+02      982.00
  0.35259E+00  0.61995E+02    0.20000E+00  0.20000E+00 -0.40000E+00  0.00000E+00  0.00000E+00  0.00000E+00    0.18364E+02  0.17685E+02 -0.36049E+02 -0.24837E+01  0.24125E+01  0.17158E+02      982.00
  0.37439E+00  0.62302E+02    0.21250E+00  0.21250E+00 -0.42500E+00  0.00000E+00  0.00000E+00  0.00000E+00    0.18412E+02  0.17795E+02 -0.36207E+02 -0.24780E+01  0.23641E+01  0.17286E+02      982.00
  0.39619E+00  0.62580E+02    0.22500E+00  0.22500E+00 -0.45000E+00  0.00000E+00  0.00000E+00  0.00000E+00    0.18450E+02  0.17902E+02 -0.36352E+02 -0.24700E+01  0.23120E+01  0.17401E+02      982.00
  0.41797E+00  0.62841E+02    0.23750E+00  0.23750E+00 -0.47500E+00  0.00000E+00  0.00000E+00  0.00000E+00    0.18491E+02  0.18001E+02 -0.36492E+02 -0.24604E+01  0.22734E+01  0.17502E+02      982.00
  0.43975E+00  0.63076E+02    0.25000E+00  0.25000E+00 -0.50000E+00  0.00000E+00  0.00000E+00  0.00000E+00    0.18528E+02  0.18092E+02 -0.36620E+02 -0.24489E+01  0.22380E+01  0.17589E+02      982.00
  0.46152E+00  0.63297E+02    0.26250E+00  0.26250E+00 -0.52500E+00  0.00000E+00  0.00000E+00  0.00000E+00    0.18565E+02  0.18178E+02 -0.36742E+02 -0.24363E+01  0.22066E+01  0.17668E+02      982.00
  0.48329E+00  0.63503E+02    0.27500E+00  0.27500E+00 -0.55000E+00  0.00000E+00  0.00000E+00  0.00000E+00    0.18592E+02  0.18264E+02 -0.36856E+02 -0.24199E+01  0.21687E+01  0.17743E+02      982.00
  0.50505E+00  0.63665E+02    0.28750E+00  0.28750E+00 -0.57500E+00  0.00000E+00  0.00000E+00  0.00000E+00    0.18626E+02  0.18327E+02 -0.36953E+02 -0.24086E+01  0.21522E+01  0.17790E+02      982.00
  0.52682E+00  0.63829E+02    0.30000E+00  0.30000E+00 -0.60000E+00  0.00000E+00  0.00000E+00  0.00000E+00    0.18649E+02  0.18397E+02 -0.37045E+02 -0.23924E+01  0.21218E+01  0.17847E+02      982.00
  0.54858E+00  0.63990E+02    0.31250E+00  0.31250E+00 -0.62500E+00  0.00000E+00  0.00000E+00  0.00000E+00    0.18678E+02  0.18462E+02 -0.37140E+02 -0.23778E+01  0.20991E+01  0.17897E+02      982.00
  0.57035E+00  0.64149E+02    0.32500E+00  0.32500E+00 -0.65000E+00  0.00000E+00  0.00000E+00  0.00000E+00    0.18704E+02  0.18529E+02 -0.37233E+02 -0.23581E+01  0.20694E+01  0.17948E+02      982.00
  0.59211E+00  0.64284E+02    0.33750E+00  0.33750E+00 -0.67500E+00  0.00000E+00  0.00000E+00  0.00000E+00    0.18731E+02  0.18583E+02 -0.37315E+02 -0.23429E+01  0.20491E+01  0.17985E+02      982.00
  0.61388E+00  0.64407E+02    0.35000E+00  0.35000E+00 -0.70000E+00  0.00000E+00  0.00000E+00  0.00000E+00    0.18759E+02  0.18632E+02 -0.37391E+02 -0.23280E+01  0.20309E+01  0.18018E+02      982.00
  0.63565E+00  0.64521E+02    0.36250E+00  0.36250E+00 -0.72500E+00  0.00000E+00  0.00000E+00  0.00000E+00    0.18785E+02  0.18677E+02 -0.37462E+02 -0.23133E+01  0.20140E+01  0.18046E+02      982.00
  0.65742E+00  0.64626E+02    0.37500E+00  0.37500E+00 -0.75000E+00  0.00000E+00  0.00000E+00  0.00000E+00    0.18811E+02  0.18717E+02 -0.37529E+02 -0.22991E+01  0.19980E+01  0.18072E+02      982.00
  0.67920E+00  0.64723E+02    0.38750E+00  0.38750E+00 -0.77500E+00  0.00000E+00  0.00000E+00  0.00000E+00    0.18837E+02  0.18754E+02 -0.37591E+02 -0.22855E+01  0.19828E+01  0.18094E+02      982.00
  0.70098E+00  0.64813E+02    0.40000E+00  0.40000E+00 -0.80000E+00  0.00000E+00  0.00000E+00  0.00000E+00    0.18862E+02  0.18787E+02 -0.37649E+02 -0.22723E+01  0.19683E+01  0.18114E+02      982.00
  0.72276E+00  0.64897E+02    0.41250E+00  0.41250E+00 -0.82500E+00  0.00000E+00  0.00000E+00  0.00000E+00    0.18887E+02  0.18817E+02 -0.37704E+02 -0.22598E+01  0.19546E+01  0.18132E+02      982.00
  0.74455E+00  0.64974E+02    0.42500E+00  0.42500E+00 -0.85000E+00  0.00000E+00  0.00000E+00  0.00000E+00    0.18912E+02  0.18843E+02 -0.37755E+02 -0.22479E+01  0.19415E+01  0.18148E+02      982.00
  0.76634E+00  0.65047E+02    0.43750E+00  0.43750E+00 -0.87500E+00  0.00000E+00  0.00000E+00  0.00000E+00    0.18936E+02  0.18867E+02 -0.37803E+02 -0.22366E+01  0.19291E+01  0.18162E+02      982.00
  0.78813E+00  0.65114E+02    0.45000E+00  0.45000E+00 -0.90000E+00  0.00000E+00  0.00000E+00  0.00000E+00    0.18960E+02  0.18888E+02 -0.37848E+02 -0.22260E+01  0.19172E+01  0.18174E+02      982.00
  0.80993E+00  0.65165E+02    0.46250E+00  0.46250E+00 -0.92500E+00  0.00000E+00  0.00000E+00  0.00000E+00    0.18980E+02  0.18901E+02 -0.37881E+02 -0.22132E+01  0.19018E+01  0.18186E+02      982.00
  0.83173E+00  0.65226E+02    0.47500E+00  0.47500E+00 -0.95000E+00  0.00000E+00  0.00000E+00  0.00000E+00    0.19005E+02  0.18917E+02 -0.37923E+02 -0.22031E+01  0.18900E+01  0.18197E+02      982.00
  0.85353E+00  0.65280E+02    0.48750E+00  0.48750E+00 -0.97500E+00  0.00000E+00  0.00000E+00  0.00000E+00    0.19029E+02  0.18931E+02 -0.37960E+02 -0.21943E+01  0.18794E+01  0.18206E+02      982.00
  0.87534E+00  0.65302E+02    0.50000E+00  0.50000E+00 -0.10000E+01  0.00000E+00  0.00000E+00  0.00000E+00    0.19044E+02  0.18934E+02 -0.37978E+02 -0.21809E+01  0.18726E+01  0.18205E+02      982.00
