          Evm          Svm            E11          E22          E33          E23          E13          E12         SDEV11       SDEV22       SDEV33       SDEV23       SDEV13       SDEV12      TEMP
  0.00000E+00  0.50686E+02    0.00000E+00  0.00000E+00  0.00000E+00  0.00000E+00  0.00000E+00  0.00000E+00    0.11910E+02  0.19727E+02 -0.31637E+02 -0.54500E+01 -0.22073E+01 -0.74734E+01      982.00
  0.23406E-01  0.51326E+02    0.12500E-01  0.12500E-01 -0.25000E-01  0.00000E+00  0.00000E+00  0.00000E+00    0.12416E+02  0.19405E+02 -0.31822E+02 -0.58656E+01 -0.27450E+01 -0.80308E+01      982.00
  0.46656E-01  0.51928E+02    0.25000E-01  0.25000E-01 -0.50000E-01  0.00000E+00  0.00000E+00  0.00000E+00    0.12863E+02  0.19175E+02 -0.32039E+02 -0.61719E+01 -0.31013E+01 -0.84442E+01      982.00
  0.69793E-01  0.52500E+02    0.37500E-01  0.37500E-01 -0.75000E-01  0.00000E+00  0.00000E+00  0.00000E+00    0.13248E+02  0.19027E+02 -0.32275E+02 -0.63999E+01 -0.33501E+01 -0.87722E+01      982.00
  0.92847E-01  0.53042E+02    0.50000E-01  0.50000E-01 -0.10000E+00  0.00000E+00  0.00000E+00  0.00000E+00    0.13571E+02  0.18955E+02 -0.32526E+02 -0.65626E+01 -0.35219E+01 -0.90344E+01      982.00
  0.11584E+00  0.53572E+02    0.62500E-01  0.62500E-01 -0.12500E+00  0.00000E+00  0.00000E+00  0.00000E+00    0.13847E+02  0.18947E+02 -0.32794E+02 -0.66752E+01 -0.36455E+01 -0.92589E+01      982.00
  0.13880E+00  0.54084E+02    0.75000E-01  0.75000E-01 -0.15000E+00  0.00000E+00  0.00000E+00  0.00000E+00    0.14084E+02  0.18987E+02 -0.33071E+02 -0.67456E+01 -0.37341E+01 -0.94497E+01      982.00
  0.16173E+00  0.54595E+02    0.87500E-01  0.87500E-01 -0.17500E+00  0.00000E+00  0.00000E+00  0.00000E+00    0.14286E+02  0.19076E+02 -0.33362E+02 -0.67863E+01 -0.37984E+01 -0.96193E+01      982.00
  0.18464E+00  0.55092E+02    0.10000E+00  0.10000E+00 -0.20000E+00  0.00000E+00  0.00000E+00  0.00000E+00    0.14451E+02  0.19205E+02 -0.33656E+02 -0.67982E+01 -0.38381E+01 -0.97751E+01      982.00
  0.20755E+00  0.55611E+02    0.11250E+00  0.11250E+00 -0.22500E+00  0.00000E+00  0.00000E+00  0.00000E+00    0.14599E+02  0.19372E+02 -0.33971E+02 -0.67931E+01 -0.38662E+01 -0.99286E+01      982.00
  0.23046E+00  0.56119E+02    0.12500E+00  0.12500E+00 -0.25000E+00  0.00000E+00  0.00000E+00  0.00000E+00    0.14732E+02  0.19560E+02 -0.34291E+02 -0.67647E+01 -0.38799E+01 -0.10061E+02      982.00
  0.25337E+00  0.56661E+02    0.13750E+00  0.13750E+00 -0.27500E+00  0.00000E+00  0.00000E+00  0.00000E+00    0.14857E+02  0.19774E+02 -0.34631E+02 -0.67314E+01 -0.38961E+01 -0.10206E+02      982.00
  0.27629E+00  0.57147E+02    0.15000E+00  0.15000E+00 -0.30000E+00  0.00000E+00  0.00000E+00  0.00000E+00    0.14980E+02  0.19972E+02 -0.34952E+02 -0.66810E+01 -0.39022E+01 -0.10310E+02      982.00
  0.29923E+00  0.57671E+02    0.16250E+00  0.16250E+00 -0.32500E+00  0.00000E+00  0.00000E+00  0.00000E+00    0.15103E+02  0.20189E+02 -0.35292E+02 -0.66310E+01 -0.39142E+01 -0.10428E+02      982.00
  0.32218E+00  0.58191E+02    0.17500E+00  0.17500E+00 -0.35000E+00  0.00000E+00  0.00000E+00  0.00000E+00    0.15226E+02  0.20408E+02 -0.35633E+02 -0.65778E+01 -0.39280E+01 -0.10538E+02      982.00
  0.34514E+00  0.58720E+02    0.18750E+00  0.18750E+00 -0.37500E+00  0.00000E+00  0.00000E+00  0.00000E+00    0.15353E+02  0.20628E+02 -0.35981E+02 -0.65236E+01 -0.39448E+01 -0.10644E+02      982.00
  0.36812E+00  0.59271E+02    0.20000E+00  0.20000E+00 -0.40000E+00  0.00000E+00  0.00000E+00  0.00000E+00    0.15485E+02  0.20859E+02 -0.36344E+02 -0.64661E+01 -0.39692E+01 -0.10752E+02      982.00
  0.39111E+00  0.59756E+02    0.21250E+00  0.21250E+00 -0.42500E+00  0.00000E+00  0.00000E+00  0.00000E+00    0.15617E+02  0.21054E+02 -0.36671E+02 -0.64109E+01 -0.39847E+01 -0.10831E+02      982.00
  0.41413E+00  0.60296E+02    0.22500E+00  0.22500E+00 -0.45000E+00  0.00000E+00  0.00000E+00  0.00000E+00    0.15760E+02  0.21272E+02 -0.37032E+02 -0.63512E+01 -0.40154E+01 -0.10922E+02      982.00
  0.43716E+00  0.60763E+02    0.23750E+00  0.23750E+00 -0.47500E+00  0.00000E+00  0.00000E+00  0.00000E+00    0.15896E+02  0.21454E+02 -0.37351E+02 -0.62999E+01 -0.40326E+01 -0.10987E+02      982.00
  0.46021E+00  0.61250E+02    0.25000E+00  0.25000E+00 -0.50000E+00  0.00000E+00  0.00000E+00  0.00000E+00    0.16041E+02  0.21643E+02 -0.37685E+02 -0.62455E+01 -0.40557E+01 -0.11051E+02      982.00
  0.48328E+00  0.61717E+02    0.26250E+00  0.26250E+00 -0.52500E+00  0.00000E+00  0.00000E+00  0.00000E+00    0.16187E+02  0.21820E+02 -0.38007E+02 -0.61893E+01 -0.40803E+01 -0.11108E+02      982.00
  0.50637E+00  0.62169E+02    0.27500E+00  0.27500E+00 -0.55000E+00  0.00000E+00  0.00000E+00  0.00000E+00    0.16335E+02  0.21988E+02 -0.38322E+02 -0.61330E+01 -0.41032E+01 -0.11154E+02      982.00
  0.52949E+00  0.62604E+02    0.28750E+00  0.28750E+00 -0.57500E+00  0.00000E+00  0.00000E+00  0.00000E+00    0.16484E+02  0.22145E+02 -0.38629E+02 -0.60788E+01 -0.41263E+01 -0.11195E+02      982.00
  0.55263E+00  0.63024E+02    0.30000E+00  0.30000E+00 -0.60000E+00  0.00000E+00  0.00000E+00  0.00000E+00    0.16635E+02  0.22294E+02 -0.38929E+02 -0.60205E+01 -0.41450E+01 -0.11224E+02      982.00
  0.57579E+00  0.63424E+02    0.31250E+00  0.31250E+00 -0.62500E+00  0.00000E+00  0.00000E+00  0.00000E+00    0.16784E+02  0.22433E+02 -0.39217E+02 -0.59651E+01 -0.41632E+01 -0.11247E+02      982.00
  0.59898E+00  0.63801E+02    0.32500E+00  0.32500E+00 -0.65000E+00  0.00000E+00  0.00000E+00  0.00000E+00    0.16931E+02  0.22560E+02 -0.39491E+02 -0.59097E+01 -0.41802E+01 -0.11264E+02      982.00
  0.62219E+00  0.64169E+02    0.33750E+00  0.33750E+00 -0.67500E+00  0.00000E+00  0.00000E+00  0.00000E+00    0.17074E+02  0.22686E+02 -0.39760E+02 -0.58610E+01 -0.41875E+01 -0.11275E+02      982.00
  0.64543E+00  0.64498E+02    0.35000E+00  0.35000E+00 -0.70000E+00  0.00000E+00  0.00000E+00  0.00000E+00    0.17214E+02  0.22790E+02 -0.40005E+02 -0.58032E+01 -0.42058E+01 -0.11280E+02      982.00
  0.66869E+00  0.64830E+02    0.36250E+00  0.36250E+00 -0.72500E+00  0.00000E+00  0.00000E+00  0.00000E+00    0.17355E+02  0.22900E+02 -0.40255E+02 -0.57506E+01 -0.42074E+01 -0.11278E+02      982.00
  0.69197E+00  0.65140E+02    0.37500E+00  0.37500E+00 -0.75000E+00  0.00000E+00  0.00000E+00  0.00000E+00    0.17494E+02  0.22996E+02 -0.40489E+02 -0.56955E+01 -0.42163E+01 -0.11273E+02      982.00
  0.71528E+00  0.65434E+02    0.38750E+00  0.38750E+00 -0.77500E+00  0.00000E+00  0.00000E+00  0.00000E+00    0.17630E+02  0.23085E+02 -0.40714E+02 -0.56417E+01 -0.42235E+01 -0.11263E+02      982.00
  0.73861E+00  0.65711E+02    0.40000E+00  0.40000E+00 -0.80000E+00  0.00000E+00  0.00000E+00  0.00000E+00    0.17766E+02  0.23163E+02 -0.40929E+02 -0.55819E+01 -0.42349E+01 -0.11250E+02      982.00
  0.76197E+00  0.65980E+02    0.41250E+00  0.41250E+00 -0.82500E+00  0.00000E+00  0.00000E+00  0.00000E+00    0.17894E+02  0.23246E+02 -0.41139E+02 -0.55316E+01 -0.42311E+01 -0.11231E+02      982.00
  0.78535E+00  0.66225E+02    0.42500E+00  0.42500E+00 -0.85000E+00  0.00000E+00  0.00000E+00  0.00000E+00    0.18017E+02  0.23315E+02 -0.41332E+02 -0.54796E+01 -0.42321E+01 -0.11212E+02      982.00
  0.80876E+00  0.66461E+02    0.43750E+00  0.43750E+00 -0.87500E+00  0.00000E+00  0.00000E+00  0.00000E+00    0.18139E+02  0.23381E+02 -0.41520E+02 -0.54261E+01 -0.42318E+01 -0.11190E+02      982.00
  0.83218E+00  0.66680E+02    0.45000E+00  0.45000E+00 -0.90000E+00  0.00000E+00  0.00000E+00  0.00000E+00    0.18256E+02  0.23441E+02 -0.41697E+02 -0.53729E+01 -0.42301E+01 -0.11164E+02      982.00
  0.85563E+00  0.66887E+02    0.46250E+00  0.46250E+00 -0.92500E+00  0.00000E+00  0.00000E+00  0.00000E+00    0.18368E+02  0.23496E+02 -0.41864E+02 -0.53215E+01 -0.42275E+01 -0.11138E+02      982.00
  0.87910E+00  0.67000E+02    0.47500E+00  0.47500E+00 -0.95000E+00  0.00000E+00  0.00000E+00  0.00000E+00    0.18454E+02  0.23530E+02 -0.41983E+02 -0.52429E+01 -0.41962E+01 -0.11084E+02      982.00
  0.90260E+00  0.67112E+02    0.48750E+00  0.48750E+00 -0.97500E+00  0.00000E+00  0.00000E+00  0.00000E+00    0.18538E+02  0.23560E+02 -0.42098E+02 -0.51709E+01 -0.41702E+01 -0.11033E+02      982.00
  0.92613E+00  0.67219E+02    0.50000E+00  0.50000E+00 -0.10000E+01  0.00000E+00  0.00000E+00  0.00000E+00    0.18618E+02  0.23589E+02 -0.42207E+02 -0.51017E+01 -0.41447E+01 -0.10986E+02      982.00
