          Evm          Svm            E11          E22          E33          E23          E13          E12         SDEV11       SDEV22       SDEV33       SDEV23       SDEV13       SDEV12      TEMP
  0.00000E+00  0.57054E+02    0.00000E+00  0.00000E+00  0.00000E+00  0.00000E+00  0.00000E+00  0.00000E+00    0.17940E+02  0.16403E+02 -0.34343E+02 -0.24756E+01  0.36497E+01  0.13433E+02      982.00
  0.22573E-01  0.57108E+02    0.12500E-01  0.12500E-01 -0.25000E-01  0.00000E+00  0.00000E+00  0.00000E+00    0.17742E+02  0.16604E+02 -0.34346E+02 -0.25573E+01  0.34239E+01  0.13556E+02      982.00
  0.45126E-01  0.57251E+02    0.25000E-01  0.25000E-01 -0.50000E-01  0.00000E+00  0.00000E+00  0.00000E+00    0.17631E+02  0.16754E+02 -0.34386E+02 -0.25952E+01  0.32452E+01  0.13723E+02      982.00
  0.67649E-01  0.57475E+02    0.37500E-01  0.37500E-01 -0.75000E-01  0.00000E+00  0.00000E+00  0.00000E+00    0.17570E+02  0.16888E+02 -0.34458E+02 -0.26136E+01  0.30859E+01  0.13932E+02      982.00
  0.90132E-01  0.57765E+02    0.50000E-01  0.50000E-01 -0.10000E+00  0.00000E+00  0.00000E+00  0.00000E+00    0.17548E+02  0.17013E+02 -0.34561E+02 -0.26176E+01  0.29417E+01  0.14172E+02      982.00
  0.11257E+00  0.58109E+02    0.62500E-01  0.62500E-01 -0.12500E+00  0.00000E+00  0.00000E+00  0.00000E+00    0.17556E+02  0.17132E+02 -0.34688E+02 -0.26105E+01  0.28100E+01  0.14434E+02      982.00
  0.13495E+00  0.58498E+02    0.75000E-01  0.75000E-01 -0.15000E+00  0.00000E+00  0.00000E+00  0.00000E+00    0.17592E+02  0.17246E+02 -0.34838E+02 -0.25900E+01  0.26923E+01  0.14712E+02      982.00
  0.15729E+00  0.58907E+02    0.87500E-01  0.87500E-01 -0.17500E+00  0.00000E+00  0.00000E+00  0.00000E+00    0.17638E+02  0.17362E+02 -0.35000E+02 -0.25678E+01  0.25818E+01  0.14989E+02      982.00
  0.17957E+00  0.59341E+02    0.10000E+00  0.10000E+00 -0.20000E+00  0.00000E+00  0.00000E+00  0.00000E+00    0.17700E+02  0.17475E+02 -0.35175E+02 -0.25379E+01  0.24850E+01  0.15270E+02      982.00
  0.20180E+00  0.59766E+02    0.11250E+00  0.11250E+00 -0.22500E+00  0.00000E+00  0.00000E+00  0.00000E+00    0.17763E+02  0.17589E+02 -0.35353E+02 -0.25086E+01  0.23927E+01  0.15534E+02      982.00
  0.22398E+00  0.60199E+02    0.12500E+00  0.12500E+00 -0.25000E+00  0.00000E+00  0.00000E+00  0.00000E+00    0.17835E+02  0.17700E+02 -0.35535E+02 -0.24767E+01  0.23158E+01  0.15793E+02      982.00
  0.24611E+00  0.60618E+02    0.13750E+00  0.13750E+00 -0.27500E+00  0.00000E+00  0.00000E+00  0.00000E+00    0.17908E+02  0.17808E+02 -0.35716E+02 -0.24456E+01  0.22481E+01  0.16034E+02      982.00
  0.26821E+00  0.61009E+02    0.15000E+00  0.15000E+00 -0.30000E+00  0.00000E+00  0.00000E+00  0.00000E+00    0.17974E+02  0.17914E+02 -0.35888E+02 -0.24156E+01  0.21815E+01  0.16252E+02      982.00
  0.29027E+00  0.61388E+02    0.16250E+00  0.16250E+00 -0.32500E+00  0.00000E+00  0.00000E+00  0.00000E+00    0.18044E+02  0.18014E+02 -0.36058E+02 -0.23881E+01  0.21302E+01  0.16455E+02      982.00
  0.31229E+00  0.61741E+02    0.17500E+00  0.17500E+00 -0.35000E+00  0.00000E+00  0.00000E+00  0.00000E+00    0.18108E+02  0.18111E+02 -0.36218E+02 -0.23593E+01  0.20765E+01  0.16642E+02      982.00
  0.33429E+00  0.62071E+02    0.18750E+00  0.18750E+00 -0.37500E+00  0.00000E+00  0.00000E+00  0.00000E+00    0.18172E+02  0.18200E+02 -0.36372E+02 -0.23362E+01  0.20387E+01  0.16806E+02      982.00
  0.35627E+00  0.62386E+02    0.20000E+00  0.20000E+00 -0.40000E+00  0.00000E+00  0.00000E+00  0.00000E+00    0.18232E+02  0.18287E+02 -0.36519E+02 -0.23086E+01  0.19947E+01  0.16965E+02      982.00
  0.37822E+00  0.62664E+02    0.21250E+00  0.21250E+00 -0.42500E+00  0.00000E+00  0.00000E+00  0.00000E+00    0.18290E+02  0.18364E+02 -0.36654E+02 -0.22894E+01  0.19668E+01  0.17094E+02      982.00
  0.40015E+00  0.62883E+02    0.22500E+00  0.22500E+00 -0.45000E+00  0.00000E+00  0.00000E+00  0.00000E+00    0.18342E+02  0.18424E+02 -0.36766E+02 -0.22781E+01  0.19538E+01  0.17184E+02      982.00
  0.42208E+00  0.63118E+02    0.23750E+00  0.23750E+00 -0.47500E+00  0.00000E+00  0.00000E+00  0.00000E+00    0.18390E+02  0.18489E+02 -0.36880E+02 -0.22579E+01  0.19255E+01  0.17294E+02      982.00
  0.44399E+00  0.63361E+02    0.25000E+00  0.25000E+00 -0.50000E+00  0.00000E+00  0.00000E+00  0.00000E+00    0.18442E+02  0.18556E+02 -0.36998E+02 -0.22371E+01  0.18964E+01  0.17405E+02      982.00
  0.46589E+00  0.63558E+02    0.26250E+00  0.26250E+00 -0.52500E+00  0.00000E+00  0.00000E+00  0.00000E+00    0.18490E+02  0.18611E+02 -0.37101E+02 -0.22236E+01  0.18798E+01  0.17485E+02      982.00
  0.48778E+00  0.63738E+02    0.27500E+00  0.27500E+00 -0.55000E+00  0.00000E+00  0.00000E+00  0.00000E+00    0.18536E+02  0.18659E+02 -0.37195E+02 -0.22113E+01  0.18657E+01  0.17555E+02      982.00
  0.50966E+00  0.63903E+02    0.28750E+00  0.28750E+00 -0.57500E+00  0.00000E+00  0.00000E+00  0.00000E+00    0.18580E+02  0.18703E+02 -0.37283E+02 -0.21999E+01  0.18532E+01  0.17618E+02      982.00
  0.53154E+00  0.64055E+02    0.30000E+00  0.30000E+00 -0.60000E+00  0.00000E+00  0.00000E+00  0.00000E+00    0.18622E+02  0.18743E+02 -0.37365E+02 -0.21895E+01  0.18418E+01  0.17674E+02      982.00
  0.55341E+00  0.64195E+02    0.31250E+00  0.31250E+00 -0.62500E+00  0.00000E+00  0.00000E+00  0.00000E+00    0.18663E+02  0.18779E+02 -0.37441E+02 -0.21800E+01  0.18314E+01  0.17724E+02      982.00
  0.57529E+00  0.64356E+02    0.32500E+00  0.32500E+00 -0.65000E+00  0.00000E+00  0.00000E+00  0.00000E+00    0.18710E+02  0.18817E+02 -0.37527E+02 -0.21641E+01  0.18139E+01  0.17786E+02      982.00
  0.59715E+00  0.64470E+02    0.33750E+00  0.33750E+00 -0.67500E+00  0.00000E+00  0.00000E+00  0.00000E+00    0.18747E+02  0.18844E+02 -0.37591E+02 -0.21550E+01  0.18038E+01  0.17826E+02      982.00
  0.61902E+00  0.64576E+02    0.35000E+00  0.35000E+00 -0.70000E+00  0.00000E+00  0.00000E+00  0.00000E+00    0.18782E+02  0.18868E+02 -0.37650E+02 -0.21480E+01  0.17960E+01  0.17861E+02      982.00
  0.64088E+00  0.64674E+02    0.36250E+00  0.36250E+00 -0.72500E+00  0.00000E+00  0.00000E+00  0.00000E+00    0.18817E+02  0.18889E+02 -0.37706E+02 -0.21417E+01  0.17891E+01  0.17893E+02      982.00
  0.66275E+00  0.64765E+02    0.37500E+00  0.37500E+00 -0.75000E+00  0.00000E+00  0.00000E+00  0.00000E+00    0.18850E+02  0.18907E+02 -0.37758E+02 -0.21361E+01  0.17828E+01  0.17922E+02      982.00
  0.68461E+00  0.64823E+02    0.38750E+00  0.38750E+00 -0.77500E+00  0.00000E+00  0.00000E+00  0.00000E+00    0.18874E+02  0.18916E+02 -0.37790E+02 -0.21347E+01  0.17803E+01  0.17940E+02      982.00
  0.70647E+00  0.64906E+02    0.40000E+00  0.40000E+00 -0.80000E+00  0.00000E+00  0.00000E+00  0.00000E+00    0.18907E+02  0.18932E+02 -0.37839E+02 -0.21305E+01  0.17756E+01  0.17965E+02      982.00
  0.72833E+00  0.65022E+02    0.41250E+00  0.41250E+00 -0.82500E+00  0.00000E+00  0.00000E+00  0.00000E+00    0.18957E+02  0.18947E+02 -0.37904E+02 -0.21199E+01  0.17623E+01  0.18004E+02      982.00
  0.75019E+00  0.65048E+02    0.42500E+00  0.42500E+00 -0.85000E+00  0.00000E+00  0.00000E+00  0.00000E+00    0.18969E+02  0.18952E+02 -0.37921E+02 -0.21206E+01  0.17634E+01  0.18009E+02      982.00
  0.77205E+00  0.65149E+02    0.43750E+00  0.43750E+00 -0.87500E+00  0.00000E+00  0.00000E+00  0.00000E+00    0.19016E+02  0.18962E+02 -0.37978E+02 -0.21130E+01  0.17528E+01  0.18041E+02      982.00
  0.79391E+00  0.65205E+02    0.45000E+00  0.45000E+00 -0.90000E+00  0.00000E+00  0.00000E+00  0.00000E+00    0.19046E+02  0.18965E+02 -0.38011E+02 -0.21085E+01  0.17465E+01  0.18059E+02      982.00
  0.81577E+00  0.65259E+02    0.46250E+00  0.46250E+00 -0.92500E+00  0.00000E+00  0.00000E+00  0.00000E+00    0.19075E+02  0.18968E+02 -0.38043E+02 -0.21058E+01  0.17421E+01  0.18074E+02      982.00
  0.83763E+00  0.65309E+02    0.47500E+00  0.47500E+00 -0.95000E+00  0.00000E+00  0.00000E+00  0.00000E+00    0.19103E+02  0.18970E+02 -0.38072E+02 -0.21039E+01  0.17383E+01  0.18088E+02      982.00
  0.85949E+00  0.65357E+02    0.48750E+00  0.48750E+00 -0.97500E+00  0.00000E+00  0.00000E+00  0.00000E+00    0.19130E+02  0.18970E+02 -0.38100E+02 -0.21025E+01  0.17348E+01  0.18102E+02      982.00
  0.88136E+00  0.65346E+02    0.50000E+00  0.50000E+00 -0.10000E+01  0.00000E+00  0.00000E+00  0.00000E+00    0.19114E+02  0.18980E+02 -0.38093E+02 -0.21076E+01  0.17400E+01  0.18099E+02      982.00
