          Evm          Svm            E11          E22          E33          E23          E13          E12         SDEV11       SDEV22       SDEV33       SDEV23       SDEV13       SDEV12      TEMP
  0.00000E+00  0.56985E+02    0.00000E+00  0.00000E+00  0.00000E+00  0.00000E+00  0.00000E+00  0.00000E+00    0.18469E+02  0.15770E+02 -0.34238E+02 -0.19936E+01  0.44003E+01  0.13345E+02      982.00
  0.22531E-01  0.56986E+02    0.12500E-01  0.12500E-01 -0.25000E-01  0.00000E+00  0.00000E+00  0.00000E+00    0.18142E+02  0.16086E+02 -0.34228E+02 -0.21645E+01  0.40398E+01  0.13481E+02      982.00
  0.45055E-01  0.57098E+02    0.25000E-01  0.25000E-01 -0.50000E-01  0.00000E+00  0.00000E+00  0.00000E+00    0.17936E+02  0.16324E+02 -0.34260E+02 -0.22741E+01  0.37593E+01  0.13656E+02      982.00
  0.67556E-01  0.57306E+02    0.37500E-01  0.37500E-01 -0.75000E-01  0.00000E+00  0.00000E+00  0.00000E+00    0.17802E+02  0.16529E+02 -0.34331E+02 -0.23538E+01  0.35154E+01  0.13871E+02      982.00
  0.90021E-01  0.57593E+02    0.50000E-01  0.50000E-01 -0.10000E+00  0.00000E+00  0.00000E+00  0.00000E+00    0.17732E+02  0.16703E+02 -0.34435E+02 -0.24059E+01  0.33059E+01  0.14119E+02      982.00
  0.11244E+00  0.57941E+02    0.62500E-01  0.62500E-01 -0.12500E+00  0.00000E+00  0.00000E+00  0.00000E+00    0.17708E+02  0.16858E+02 -0.34566E+02 -0.24388E+01  0.31225E+01  0.14390E+02      982.00
  0.13481E+00  0.58333E+02    0.75000E-01  0.75000E-01 -0.15000E+00  0.00000E+00  0.00000E+00  0.00000E+00    0.17718E+02  0.17001E+02 -0.34718E+02 -0.24574E+01  0.29611E+01  0.14673E+02      982.00
  0.15713E+00  0.58752E+02    0.87500E-01  0.87500E-01 -0.17500E+00  0.00000E+00  0.00000E+00  0.00000E+00    0.17750E+02  0.17135E+02 -0.34886E+02 -0.24653E+01  0.28185E+01  0.14957E+02      982.00
  0.17940E+00  0.59192E+02    0.10000E+00  0.10000E+00 -0.20000E+00  0.00000E+00  0.00000E+00  0.00000E+00    0.17804E+02  0.17262E+02 -0.35066E+02 -0.24600E+01  0.26959E+01  0.15241E+02      982.00
  0.20162E+00  0.59627E+02    0.11250E+00  0.11250E+00 -0.22500E+00  0.00000E+00  0.00000E+00  0.00000E+00    0.17861E+02  0.17388E+02 -0.35248E+02 -0.24535E+01  0.25844E+01  0.15509E+02      982.00
  0.22378E+00  0.60066E+02    0.12500E+00  0.12500E+00 -0.25000E+00  0.00000E+00  0.00000E+00  0.00000E+00    0.17927E+02  0.17508E+02 -0.35435E+02 -0.24391E+01  0.24906E+01  0.15770E+02      982.00
  0.24591E+00  0.60480E+02    0.13750E+00  0.13750E+00 -0.27500E+00  0.00000E+00  0.00000E+00  0.00000E+00    0.17990E+02  0.17626E+02 -0.35616E+02 -0.24254E+01  0.24032E+01  0.16006E+02      982.00
  0.26799E+00  0.60887E+02    0.15000E+00  0.15000E+00 -0.30000E+00  0.00000E+00  0.00000E+00  0.00000E+00    0.18057E+02  0.17740E+02 -0.35796E+02 -0.24078E+01  0.23327E+01  0.16232E+02      982.00
  0.29004E+00  0.61262E+02    0.16250E+00  0.16250E+00 -0.32500E+00  0.00000E+00  0.00000E+00  0.00000E+00    0.18115E+02  0.17850E+02 -0.35965E+02 -0.23907E+01  0.22637E+01  0.16433E+02      982.00
  0.31205E+00  0.61624E+02    0.17500E+00  0.17500E+00 -0.35000E+00  0.00000E+00  0.00000E+00  0.00000E+00    0.18177E+02  0.17955E+02 -0.36131E+02 -0.23730E+01  0.22114E+01  0.16619E+02      982.00
  0.33404E+00  0.61958E+02    0.18750E+00  0.18750E+00 -0.37500E+00  0.00000E+00  0.00000E+00  0.00000E+00    0.18229E+02  0.18057E+02 -0.36286E+02 -0.23541E+01  0.21564E+01  0.16789E+02      982.00
  0.35600E+00  0.62269E+02    0.20000E+00  0.20000E+00 -0.40000E+00  0.00000E+00  0.00000E+00  0.00000E+00    0.18284E+02  0.18150E+02 -0.36434E+02 -0.23375E+01  0.21176E+01  0.16939E+02      982.00
  0.37794E+00  0.62555E+02    0.21250E+00  0.21250E+00 -0.42500E+00  0.00000E+00  0.00000E+00  0.00000E+00    0.18335E+02  0.18238E+02 -0.36573E+02 -0.23213E+01  0.20840E+01  0.17072E+02      982.00
  0.39987E+00  0.62789E+02    0.22500E+00  0.22500E+00 -0.45000E+00  0.00000E+00  0.00000E+00  0.00000E+00    0.18377E+02  0.18312E+02 -0.36689E+02 -0.23058E+01  0.20562E+01  0.17176E+02      982.00
  0.42178E+00  0.63035E+02    0.23750E+00  0.23750E+00 -0.47500E+00  0.00000E+00  0.00000E+00  0.00000E+00    0.18424E+02  0.18389E+02 -0.36812E+02 -0.22909E+01  0.20300E+01  0.17284E+02      982.00
  0.44368E+00  0.63251E+02    0.25000E+00  0.25000E+00 -0.50000E+00  0.00000E+00  0.00000E+00  0.00000E+00    0.18464E+02  0.18458E+02 -0.36922E+02 -0.22761E+01  0.20053E+01  0.17376E+02      982.00
  0.46557E+00  0.63459E+02    0.26250E+00  0.26250E+00 -0.52500E+00  0.00000E+00  0.00000E+00  0.00000E+00    0.18505E+02  0.18524E+02 -0.37029E+02 -0.22628E+01  0.19843E+01  0.17461E+02      982.00
  0.48745E+00  0.63666E+02    0.27500E+00  0.27500E+00 -0.55000E+00  0.00000E+00  0.00000E+00  0.00000E+00    0.18537E+02  0.18594E+02 -0.37131E+02 -0.22434E+01  0.19512E+01  0.17557E+02      982.00
  0.50932E+00  0.63838E+02    0.28750E+00  0.28750E+00 -0.57500E+00  0.00000E+00  0.00000E+00  0.00000E+00    0.18573E+02  0.18650E+02 -0.37223E+02 -0.22315E+01  0.19339E+01  0.17623E+02      982.00
  0.53119E+00  0.63995E+02    0.30000E+00  0.30000E+00 -0.60000E+00  0.00000E+00  0.00000E+00  0.00000E+00    0.18608E+02  0.18700E+02 -0.37308E+02 -0.22202E+01  0.19193E+01  0.17681E+02      982.00
  0.55305E+00  0.64139E+02    0.31250E+00  0.31250E+00 -0.62500E+00  0.00000E+00  0.00000E+00  0.00000E+00    0.18641E+02  0.18745E+02 -0.37386E+02 -0.22094E+01  0.19061E+01  0.17733E+02      982.00
  0.57491E+00  0.64272E+02    0.32500E+00  0.32500E+00 -0.65000E+00  0.00000E+00  0.00000E+00  0.00000E+00    0.18674E+02  0.18786E+02 -0.37460E+02 -0.21992E+01  0.18939E+01  0.17780E+02      982.00
  0.59676E+00  0.64395E+02    0.33750E+00  0.33750E+00 -0.67500E+00  0.00000E+00  0.00000E+00  0.00000E+00    0.18705E+02  0.18823E+02 -0.37528E+02 -0.21896E+01  0.18826E+01  0.17822E+02      982.00
  0.61862E+00  0.64534E+02    0.35000E+00  0.35000E+00 -0.70000E+00  0.00000E+00  0.00000E+00  0.00000E+00    0.18740E+02  0.18865E+02 -0.37604E+02 -0.21740E+01  0.18636E+01  0.17873E+02      982.00
  0.64047E+00  0.64635E+02    0.36250E+00  0.36250E+00 -0.72500E+00  0.00000E+00  0.00000E+00  0.00000E+00    0.18768E+02  0.18894E+02 -0.37662E+02 -0.21646E+01  0.18520E+01  0.17907E+02      982.00
  0.66232E+00  0.64729E+02    0.37500E+00  0.37500E+00 -0.75000E+00  0.00000E+00  0.00000E+00  0.00000E+00    0.18796E+02  0.18920E+02 -0.37716E+02 -0.21570E+01  0.18429E+01  0.17936E+02      982.00
  0.68417E+00  0.64816E+02    0.38750E+00  0.38750E+00 -0.77500E+00  0.00000E+00  0.00000E+00  0.00000E+00    0.18824E+02  0.18942E+02 -0.37766E+02 -0.21502E+01  0.18347E+01  0.17963E+02      982.00
  0.70602E+00  0.64872E+02    0.40000E+00  0.40000E+00 -0.80000E+00  0.00000E+00  0.00000E+00  0.00000E+00    0.18843E+02  0.18955E+02 -0.37798E+02 -0.21478E+01  0.18309E+01  0.17981E+02      982.00
  0.72787E+00  0.64953E+02    0.41250E+00  0.41250E+00 -0.82500E+00  0.00000E+00  0.00000E+00  0.00000E+00    0.18872E+02  0.18974E+02 -0.37846E+02 -0.21425E+01  0.18246E+01  0.18004E+02      982.00
  0.74972E+00  0.65023E+02    0.42500E+00  0.42500E+00 -0.85000E+00  0.00000E+00  0.00000E+00  0.00000E+00    0.18898E+02  0.18989E+02 -0.37888E+02 -0.21370E+01  0.18177E+01  0.18024E+02      982.00
  0.77157E+00  0.65127E+02    0.43750E+00  0.43750E+00 -0.87500E+00  0.00000E+00  0.00000E+00  0.00000E+00    0.18939E+02  0.19008E+02 -0.37947E+02 -0.21257E+01  0.18020E+01  0.18057E+02      982.00
  0.79342E+00  0.65152E+02    0.45000E+00  0.45000E+00 -0.90000E+00  0.00000E+00  0.00000E+00  0.00000E+00    0.18950E+02  0.19014E+02 -0.37964E+02 -0.21258E+01  0.18024E+01  0.18061E+02      982.00
  0.81527E+00  0.65241E+02    0.46250E+00  0.46250E+00 -0.92500E+00  0.00000E+00  0.00000E+00  0.00000E+00    0.18990E+02  0.19026E+02 -0.38015E+02 -0.21175E+01  0.17897E+01  0.18089E+02      982.00
  0.83712E+00  0.65264E+02    0.47500E+00  0.47500E+00 -0.95000E+00  0.00000E+00  0.00000E+00  0.00000E+00    0.19000E+02  0.19031E+02 -0.38031E+02 -0.21181E+01  0.17905E+01  0.18093E+02      982.00
  0.85897E+00  0.65341E+02    0.48750E+00  0.48750E+00 -0.97500E+00  0.00000E+00  0.00000E+00  0.00000E+00    0.19039E+02  0.19037E+02 -0.38076E+02 -0.21116E+01  0.17792E+01  0.18117E+02      982.00
  0.88083E+00  0.65330E+02    0.50000E+00  0.50000E+00 -0.10000E+01  0.00000E+00  0.00000E+00  0.00000E+00    0.19026E+02  0.19042E+02 -0.38068E+02 -0.21176E+01  0.17840E+01  0.18114E+02      982.00
