          Evm          Svm            E11          E22          E33          E23          E13          E12         SDEV11       SDEV22       SDEV33       SDEV23       SDEV13       SDEV12      TEMP
  0.00000E+00  0.68736E+02    0.00000E+00  0.00000E+00  0.00000E+00  0.00000E+00  0.00000E+00  0.00000E+00    0.22562E+02  0.22872E+02 -0.45434E+02 -0.31652E+00 -0.16662E+01 -0.48800E+01      982.00
  0.24787E-01  0.68538E+02    0.12500E-01  0.12500E-01 -0.25000E-01  0.00000E+00  0.00000E+00  0.00000E+00    0.22399E+02  0.22919E+02 -0.45318E+02 -0.32200E+00 -0.16847E+01 -0.47470E+01      982.00
  0.49582E-01  0.68383E+02    0.25000E-01  0.25000E-01 -0.50000E-01  0.00000E+00  0.00000E+00  0.00000E+00    0.22257E+02  0.22981E+02 -0.45238E+02 -0.32742E+00 -0.16975E+01 -0.45569E+01      982.00
  0.74390E-01  0.68328E+02    0.37500E-01  0.37500E-01 -0.75000E-01  0.00000E+00  0.00000E+00  0.00000E+00    0.22129E+02  0.23108E+02 -0.45236E+02 -0.34198E+00 -0.16990E+01 -0.42738E+01      982.00
  0.99217E-01  0.68364E+02    0.50000E-01  0.50000E-01 -0.10000E+00  0.00000E+00  0.00000E+00  0.00000E+00    0.22026E+02  0.23278E+02 -0.45304E+02 -0.35815E+00 -0.16845E+01 -0.38978E+01      982.00
  0.12407E+00  0.68452E+02    0.62500E-01  0.62500E-01 -0.12500E+00  0.00000E+00  0.00000E+00  0.00000E+00    0.21934E+02  0.23481E+02 -0.45414E+02 -0.36913E+00 -0.16353E+01 -0.34139E+01      982.00
  0.14895E+00  0.68566E+02    0.75000E-01  0.75000E-01 -0.15000E+00  0.00000E+00  0.00000E+00  0.00000E+00    0.21872E+02  0.23668E+02 -0.45540E+02 -0.36734E+00 -0.15595E+01 -0.28858E+01      982.00
  0.17385E+00  0.68664E+02    0.87500E-01  0.87500E-01 -0.17500E+00  0.00000E+00  0.00000E+00  0.00000E+00    0.21816E+02  0.23831E+02 -0.45648E+02 -0.37015E+00 -0.14576E+01 -0.23540E+01      982.00
  0.19878E+00  0.68760E+02    0.10000E+00  0.10000E+00 -0.20000E+00  0.00000E+00  0.00000E+00  0.00000E+00    0.21780E+02  0.23958E+02 -0.45738E+02 -0.41747E+00 -0.13921E+01 -0.19224E+01      982.00
  0.22373E+00  0.68874E+02    0.11250E+00  0.11250E+00 -0.22500E+00  0.00000E+00  0.00000E+00  0.00000E+00    0.21749E+02  0.24080E+02 -0.45829E+02 -0.51979E+00 -0.13711E+01 -0.15888E+01      982.00
  0.24868E+00  0.69006E+02    0.12500E+00  0.12500E+00 -0.25000E+00  0.00000E+00  0.00000E+00  0.00000E+00    0.21728E+02  0.24192E+02 -0.45920E+02 -0.66339E+00 -0.14039E+01 -0.13714E+01      982.00
  0.27363E+00  0.69152E+02    0.13750E+00  0.13750E+00 -0.27500E+00  0.00000E+00  0.00000E+00  0.00000E+00    0.21702E+02  0.24311E+02 -0.46013E+02 -0.82732E+00 -0.14692E+01 -0.12472E+01      982.00
  0.29859E+00  0.69309E+02    0.15000E+00  0.15000E+00 -0.30000E+00  0.00000E+00  0.00000E+00  0.00000E+00    0.21677E+02  0.24430E+02 -0.46108E+02 -0.99247E+00 -0.15597E+01 -0.12189E+01      982.00
  0.32353E+00  0.69466E+02    0.16250E+00  0.16250E+00 -0.32500E+00  0.00000E+00  0.00000E+00  0.00000E+00    0.21651E+02  0.24548E+02 -0.46199E+02 -0.11420E+01 -0.16586E+01 -0.12500E+01      982.00
  0.34847E+00  0.69619E+02    0.17500E+00  0.17500E+00 -0.35000E+00  0.00000E+00  0.00000E+00  0.00000E+00    0.21616E+02  0.24670E+02 -0.46286E+02 -0.12768E+01 -0.17620E+01 -0.13311E+01      982.00
  0.37340E+00  0.69768E+02    0.18750E+00  0.18750E+00 -0.37500E+00  0.00000E+00  0.00000E+00  0.00000E+00    0.21560E+02  0.24804E+02 -0.46364E+02 -0.14073E+01 -0.18732E+01 -0.14793E+01      982.00
  0.39832E+00  0.69899E+02    0.20000E+00  0.20000E+00 -0.40000E+00  0.00000E+00  0.00000E+00  0.00000E+00    0.21508E+02  0.24923E+02 -0.46431E+02 -0.15085E+01 -0.19775E+01 -0.16201E+01      982.00
  0.42323E+00  0.70019E+02    0.21250E+00  0.21250E+00 -0.42500E+00  0.00000E+00  0.00000E+00  0.00000E+00    0.21438E+02  0.25049E+02 -0.46487E+02 -0.16028E+01 -0.20844E+01 -0.17969E+01      982.00
  0.44813E+00  0.70125E+02    0.22500E+00  0.22500E+00 -0.45000E+00  0.00000E+00  0.00000E+00  0.00000E+00    0.21355E+02  0.25177E+02 -0.46532E+02 -0.16874E+01 -0.21919E+01 -0.19919E+01      982.00
  0.47302E+00  0.70217E+02    0.23750E+00  0.23750E+00 -0.47500E+00  0.00000E+00  0.00000E+00  0.00000E+00    0.21259E+02  0.25305E+02 -0.46564E+02 -0.17639E+01 -0.23000E+01 -0.22006E+01      982.00
  0.49788E+00  0.70297E+02    0.25000E+00  0.25000E+00 -0.50000E+00  0.00000E+00  0.00000E+00  0.00000E+00    0.21151E+02  0.25434E+02 -0.46585E+02 -0.18336E+01 -0.24084E+01 -0.24189E+01      982.00
  0.52273E+00  0.70363E+02    0.26250E+00  0.26250E+00 -0.52500E+00  0.00000E+00  0.00000E+00  0.00000E+00    0.21031E+02  0.25564E+02 -0.46594E+02 -0.18973E+01 -0.25170E+01 -0.26430E+01      982.00
  0.54757E+00  0.70419E+02    0.27500E+00  0.27500E+00 -0.55000E+00  0.00000E+00  0.00000E+00  0.00000E+00    0.20900E+02  0.25694E+02 -0.46594E+02 -0.19556E+01 -0.26252E+01 -0.28696E+01      982.00
  0.57238E+00  0.70465E+02    0.28750E+00  0.28750E+00 -0.57500E+00  0.00000E+00  0.00000E+00  0.00000E+00    0.20759E+02  0.25826E+02 -0.46585E+02 -0.20090E+01 -0.27324E+01 -0.30958E+01      982.00
  0.59717E+00  0.70509E+02    0.30000E+00  0.30000E+00 -0.60000E+00  0.00000E+00  0.00000E+00  0.00000E+00    0.20599E+02  0.25969E+02 -0.46568E+02 -0.20621E+01 -0.28436E+01 -0.33481E+01      982.00
  0.62194E+00  0.70538E+02    0.31250E+00  0.31250E+00 -0.62500E+00  0.00000E+00  0.00000E+00  0.00000E+00    0.20441E+02  0.26102E+02 -0.46543E+02 -0.21053E+01 -0.29469E+01 -0.35639E+01      982.00
  0.64668E+00  0.70560E+02    0.32500E+00  0.32500E+00 -0.65000E+00  0.00000E+00  0.00000E+00  0.00000E+00    0.20277E+02  0.26236E+02 -0.46513E+02 -0.21443E+01 -0.30478E+01 -0.37715E+01      982.00
  0.67140E+00  0.70575E+02    0.33750E+00  0.33750E+00 -0.67500E+00  0.00000E+00  0.00000E+00  0.00000E+00    0.20107E+02  0.26370E+02 -0.46477E+02 -0.21792E+01 -0.31459E+01 -0.39701E+01      982.00
  0.69610E+00  0.70585E+02    0.35000E+00  0.35000E+00 -0.70000E+00  0.00000E+00  0.00000E+00  0.00000E+00    0.19932E+02  0.26505E+02 -0.46437E+02 -0.22100E+01 -0.32409E+01 -0.41582E+01      982.00
  0.72077E+00  0.70599E+02    0.36250E+00  0.36250E+00 -0.72500E+00  0.00000E+00  0.00000E+00  0.00000E+00    0.19753E+02  0.26645E+02 -0.46398E+02 -0.22353E+01 -0.33308E+01 -0.43467E+01      982.00
  0.74541E+00  0.70600E+02    0.37500E+00  0.37500E+00 -0.75000E+00  0.00000E+00  0.00000E+00  0.00000E+00    0.19572E+02  0.26779E+02 -0.46351E+02 -0.22586E+01 -0.34191E+01 -0.45091E+01      982.00
  0.77003E+00  0.70597E+02    0.38750E+00  0.38750E+00 -0.77500E+00  0.00000E+00  0.00000E+00  0.00000E+00    0.19390E+02  0.26913E+02 -0.46303E+02 -0.22791E+01 -0.35041E+01 -0.46591E+01      982.00
  0.79463E+00  0.70591E+02    0.40000E+00  0.40000E+00 -0.80000E+00  0.00000E+00  0.00000E+00  0.00000E+00    0.19206E+02  0.27047E+02 -0.46253E+02 -0.22960E+01 -0.35853E+01 -0.47969E+01      982.00
  0.81920E+00  0.70583E+02    0.41250E+00  0.41250E+00 -0.82500E+00  0.00000E+00  0.00000E+00  0.00000E+00    0.19022E+02  0.27181E+02 -0.46203E+02 -0.23100E+01 -0.36628E+01 -0.49225E+01      982.00
  0.84375E+00  0.70583E+02    0.42500E+00  0.42500E+00 -0.85000E+00  0.00000E+00  0.00000E+00  0.00000E+00    0.18814E+02  0.27337E+02 -0.46150E+02 -0.23252E+01 -0.37521E+01 -0.50620E+01      982.00
  0.86826E+00  0.70571E+02    0.43750E+00  0.43750E+00 -0.87500E+00  0.00000E+00  0.00000E+00  0.00000E+00    0.18632E+02  0.27468E+02 -0.46099E+02 -0.23334E+01 -0.38223E+01 -0.51601E+01      982.00
  0.89276E+00  0.70556E+02    0.45000E+00  0.45000E+00 -0.90000E+00  0.00000E+00  0.00000E+00  0.00000E+00    0.18450E+02  0.27598E+02 -0.46049E+02 -0.23391E+01 -0.38886E+01 -0.52463E+01      982.00
  0.91724E+00  0.70541E+02    0.46250E+00  0.46250E+00 -0.92500E+00  0.00000E+00  0.00000E+00  0.00000E+00    0.18270E+02  0.27728E+02 -0.45998E+02 -0.23428E+01 -0.39514E+01 -0.53219E+01      982.00
  0.94169E+00  0.70472E+02    0.47500E+00  0.47500E+00 -0.95000E+00  0.00000E+00  0.00000E+00  0.00000E+00    0.18087E+02  0.27831E+02 -0.45919E+02 -0.23341E+01 -0.39943E+01 -0.53757E+01      982.00
  0.96612E+00  0.70408E+02    0.48750E+00  0.48750E+00 -0.97500E+00  0.00000E+00  0.00000E+00  0.00000E+00    0.17908E+02  0.27935E+02 -0.45843E+02 -0.23291E+01 -0.40391E+01 -0.54228E+01      982.00
  0.99054E+00  0.70352E+02    0.50000E+00  0.50000E+00 -0.10000E+01  0.00000E+00  0.00000E+00  0.00000E+00    0.17712E+02  0.28056E+02 -0.45768E+02 -0.23218E+01 -0.40910E+01 -0.54677E+01      982.00
