          Evm          Svm            E11          E22          E33          E23          E13          E12         SDEV11       SDEV22       SDEV33       SDEV23       SDEV13       SDEV12      TEMP
  0.00000E+00  0.55457E+02    0.00000E+00  0.00000E+00  0.00000E+00  0.00000E+00  0.00000E+00  0.00000E+00    0.14596E+02  0.19694E+02 -0.34290E+02 -0.45220E+01  0.11286E+01  0.10728E+02      982.00
  0.23187E-01  0.55503E+02    0.12500E-01  0.12500E-01 -0.25000E-01  0.00000E+00  0.00000E+00  0.00000E+00    0.15067E+02  0.19230E+02 -0.34297E+02 -0.41325E+01  0.13315E+01  0.11021E+02      982.00
  0.46359E-01  0.55630E+02    0.25000E-01  0.25000E-01 -0.50000E-01  0.00000E+00  0.00000E+00  0.00000E+00    0.15550E+02  0.18783E+02 -0.34333E+02 -0.37742E+01  0.15045E+01  0.11330E+02      982.00
  0.69503E-01  0.55836E+02    0.37500E-01  0.37500E-01 -0.75000E-01  0.00000E+00  0.00000E+00  0.00000E+00    0.15990E+02  0.18405E+02 -0.34395E+02 -0.34625E+01  0.16389E+01  0.11653E+02      982.00
  0.92604E-01  0.56131E+02    0.50000E-01  0.50000E-01 -0.10000E+00  0.00000E+00  0.00000E+00  0.00000E+00    0.16357E+02  0.18135E+02 -0.34493E+02 -0.32000E+01  0.17351E+01  0.11996E+02      982.00
  0.11565E+00  0.56516E+02    0.62500E-01  0.62500E-01 -0.12500E+00  0.00000E+00  0.00000E+00  0.00000E+00    0.16660E+02  0.17968E+02 -0.34628E+02 -0.29751E+01  0.18023E+01  0.12364E+02      982.00
  0.13862E+00  0.56970E+02    0.75000E-01  0.75000E-01 -0.15000E+00  0.00000E+00  0.00000E+00  0.00000E+00    0.16901E+02  0.17895E+02 -0.34795E+02 -0.27836E+01  0.18434E+01  0.12745E+02      982.00
  0.16153E+00  0.57469E+02    0.87500E-01  0.87500E-01 -0.17500E+00  0.00000E+00  0.00000E+00  0.00000E+00    0.17097E+02  0.17889E+02 -0.34986E+02 -0.26178E+01  0.18648E+01  0.13129E+02      982.00
  0.18436E+00  0.57991E+02    0.10000E+00  0.10000E+00 -0.20000E+00  0.00000E+00  0.00000E+00  0.00000E+00    0.17261E+02  0.17930E+02 -0.35191E+02 -0.24733E+01  0.18701E+01  0.13507E+02      982.00
  0.20711E+00  0.58521E+02    0.11250E+00  0.11250E+00 -0.22500E+00  0.00000E+00  0.00000E+00  0.00000E+00    0.17401E+02  0.18001E+02 -0.35402E+02 -0.23472E+01  0.18620E+01  0.13876E+02      982.00
  0.22980E+00  0.59047E+02    0.12500E+00  0.12500E+00 -0.25000E+00  0.00000E+00  0.00000E+00  0.00000E+00    0.17522E+02  0.18092E+02 -0.35614E+02 -0.22563E+01  0.18397E+01  0.14225E+02      982.00
  0.25242E+00  0.59557E+02    0.13750E+00  0.13750E+00 -0.27500E+00  0.00000E+00  0.00000E+00  0.00000E+00    0.17633E+02  0.18189E+02 -0.35822E+02 -0.21844E+01  0.18109E+01  0.14554E+02      982.00
  0.27497E+00  0.60049E+02    0.15000E+00  0.15000E+00 -0.30000E+00  0.00000E+00  0.00000E+00  0.00000E+00    0.17737E+02  0.18285E+02 -0.36022E+02 -0.21148E+01  0.17784E+01  0.14869E+02      982.00
  0.29747E+00  0.60492E+02    0.16250E+00  0.16250E+00 -0.32500E+00  0.00000E+00  0.00000E+00  0.00000E+00    0.17831E+02  0.18375E+02 -0.36206E+02 -0.20911E+01  0.17433E+01  0.15137E+02      982.00
  0.31991E+00  0.60915E+02    0.17500E+00  0.17500E+00 -0.35000E+00  0.00000E+00  0.00000E+00  0.00000E+00    0.17922E+02  0.18456E+02 -0.36378E+02 -0.20489E+01  0.17088E+01  0.15400E+02      982.00
  0.34231E+00  0.61324E+02    0.18750E+00  0.18750E+00 -0.37500E+00  0.00000E+00  0.00000E+00  0.00000E+00    0.18014E+02  0.18532E+02 -0.36546E+02 -0.20287E+01  0.16746E+01  0.15647E+02      982.00
  0.36465E+00  0.61706E+02    0.20000E+00  0.20000E+00 -0.40000E+00  0.00000E+00  0.00000E+00  0.00000E+00    0.18104E+02  0.18596E+02 -0.36700E+02 -0.20033E+01  0.16402E+01  0.15882E+02      982.00
  0.38696E+00  0.62057E+02    0.21250E+00  0.21250E+00 -0.42500E+00  0.00000E+00  0.00000E+00  0.00000E+00    0.18192E+02  0.18652E+02 -0.36844E+02 -0.19961E+01  0.16115E+01  0.16092E+02      982.00
  0.40922E+00  0.62405E+02    0.22500E+00  0.22500E+00 -0.45000E+00  0.00000E+00  0.00000E+00  0.00000E+00    0.18286E+02  0.18697E+02 -0.36982E+02 -0.19819E+01  0.15805E+01  0.16306E+02      982.00
  0.43145E+00  0.62698E+02    0.23750E+00  0.23750E+00 -0.47500E+00  0.00000E+00  0.00000E+00  0.00000E+00    0.18370E+02  0.18731E+02 -0.37100E+02 -0.19789E+01  0.15611E+01  0.16481E+02      982.00
  0.45364E+00  0.62939E+02    0.25000E+00  0.25000E+00 -0.50000E+00  0.00000E+00  0.00000E+00  0.00000E+00    0.18441E+02  0.18762E+02 -0.37202E+02 -0.19981E+01  0.15523E+01  0.16614E+02      982.00
  0.47580E+00  0.63192E+02    0.26250E+00  0.26250E+00 -0.52500E+00  0.00000E+00  0.00000E+00  0.00000E+00    0.18523E+02  0.18780E+02 -0.37303E+02 -0.19965E+01  0.15399E+01  0.16765E+02      982.00
  0.49794E+00  0.63425E+02    0.27500E+00  0.27500E+00 -0.55000E+00  0.00000E+00  0.00000E+00  0.00000E+00    0.18604E+02  0.18791E+02 -0.37395E+02 -0.19950E+01  0.15317E+01  0.16905E+02      982.00
  0.52005E+00  0.63645E+02    0.28750E+00  0.28750E+00 -0.57500E+00  0.00000E+00  0.00000E+00  0.00000E+00    0.18698E+02  0.18782E+02 -0.37480E+02 -0.19830E+01  0.15241E+01  0.17041E+02      982.00
  0.54213E+00  0.63837E+02    0.30000E+00  0.30000E+00 -0.60000E+00  0.00000E+00  0.00000E+00  0.00000E+00    0.18779E+02  0.18777E+02 -0.37556E+02 -0.19828E+01  0.15231E+01  0.17155E+02      982.00
  0.56419E+00  0.63981E+02    0.31250E+00  0.31250E+00 -0.62500E+00  0.00000E+00  0.00000E+00  0.00000E+00    0.18839E+02  0.18775E+02 -0.37614E+02 -0.19896E+01  0.15248E+01  0.17237E+02      982.00
  0.58624E+00  0.64145E+02    0.32500E+00  0.32500E+00 -0.65000E+00  0.00000E+00  0.00000E+00  0.00000E+00    0.18917E+02  0.18762E+02 -0.37679E+02 -0.19902E+01  0.15259E+01  0.17333E+02      982.00
  0.60827E+00  0.64296E+02    0.33750E+00  0.33750E+00 -0.67500E+00  0.00000E+00  0.00000E+00  0.00000E+00    0.18994E+02  0.18745E+02 -0.37739E+02 -0.19912E+01  0.15284E+01  0.17421E+02      982.00
  0.63028E+00  0.64433E+02    0.35000E+00  0.35000E+00 -0.70000E+00  0.00000E+00  0.00000E+00  0.00000E+00    0.19071E+02  0.18724E+02 -0.37794E+02 -0.19929E+01  0.15315E+01  0.17500E+02      982.00
  0.65227E+00  0.64559E+02    0.36250E+00  0.36250E+00 -0.72500E+00  0.00000E+00  0.00000E+00  0.00000E+00    0.19145E+02  0.18700E+02 -0.37845E+02 -0.19952E+01  0.15349E+01  0.17571E+02      982.00
  0.67426E+00  0.64674E+02    0.37500E+00  0.37500E+00 -0.75000E+00  0.00000E+00  0.00000E+00  0.00000E+00    0.19219E+02  0.18673E+02 -0.37892E+02 -0.19983E+01  0.15383E+01  0.17635E+02      982.00
  0.69623E+00  0.64748E+02    0.38750E+00  0.38750E+00 -0.77500E+00  0.00000E+00  0.00000E+00  0.00000E+00    0.19288E+02  0.18635E+02 -0.37922E+02 -0.19984E+01  0.15412E+01  0.17674E+02      982.00
  0.71819E+00  0.64849E+02    0.40000E+00  0.40000E+00 -0.80000E+00  0.00000E+00  0.00000E+00  0.00000E+00    0.19358E+02  0.18606E+02 -0.37964E+02 -0.20034E+01  0.15445E+01  0.17728E+02      982.00
  0.74014E+00  0.64939E+02    0.41250E+00  0.41250E+00 -0.82500E+00  0.00000E+00  0.00000E+00  0.00000E+00    0.19427E+02  0.18576E+02 -0.38002E+02 -0.20089E+01  0.15473E+01  0.17775E+02      982.00
  0.76209E+00  0.65011E+02    0.42500E+00  0.42500E+00 -0.85000E+00  0.00000E+00  0.00000E+00  0.00000E+00    0.19503E+02  0.18530E+02 -0.38033E+02 -0.20133E+01  0.15495E+01  0.17812E+02      982.00
  0.78403E+00  0.65091E+02    0.43750E+00  0.43750E+00 -0.87500E+00  0.00000E+00  0.00000E+00  0.00000E+00    0.19568E+02  0.18499E+02 -0.38067E+02 -0.20202E+01  0.15521E+01  0.17852E+02      982.00
  0.80596E+00  0.65177E+02    0.45000E+00  0.45000E+00 -0.90000E+00  0.00000E+00  0.00000E+00  0.00000E+00    0.19659E+02  0.18444E+02 -0.38103E+02 -0.20281E+01  0.15540E+01  0.17895E+02      982.00
  0.82788E+00  0.65240E+02    0.46250E+00  0.46250E+00 -0.92500E+00  0.00000E+00  0.00000E+00  0.00000E+00    0.19720E+02  0.18411E+02 -0.38131E+02 -0.20357E+01  0.15561E+01  0.17924E+02      982.00
  0.84980E+00  0.65298E+02    0.47500E+00  0.47500E+00 -0.95000E+00  0.00000E+00  0.00000E+00  0.00000E+00    0.19777E+02  0.18380E+02 -0.38157E+02 -0.20432E+01  0.15576E+01  0.17950E+02      982.00
  0.87171E+00  0.65301E+02    0.48750E+00  0.48750E+00 -0.97500E+00  0.00000E+00  0.00000E+00  0.00000E+00    0.19754E+02  0.18406E+02 -0.38160E+02 -0.20388E+01  0.15603E+01  0.17951E+02      982.00
  0.89363E+00  0.65328E+02    0.50000E+00  0.50000E+00 -0.10000E+01  0.00000E+00  0.00000E+00  0.00000E+00    0.19879E+02  0.18287E+02 -0.38166E+02 -0.20420E+01  0.15518E+01  0.17968E+02      982.00
