          Evm          Svm            E11          E22          E33          E23          E13          E12         SDEV11       SDEV22       SDEV33       SDEV23       SDEV13       SDEV12      TEMP
  0.00000E+00  0.62925E+02    0.00000E+00  0.00000E+00  0.00000E+00  0.00000E+00  0.00000E+00  0.00000E+00    0.17966E+02  0.21937E+02 -0.39903E+02 -0.30234E+01  0.35484E+01  0.99983E+01      982.00
  0.23780E-01  0.62958E+02    0.12500E-01  0.12500E-01 -0.25000E-01  0.00000E+00  0.00000E+00  0.00000E+00    0.17645E+02  0.22325E+02 -0.39971E+02 -0.30542E+01  0.35397E+01  0.97817E+01      982.00
  0.47588E-01  0.62973E+02    0.25000E-01  0.25000E-01 -0.50000E-01  0.00000E+00  0.00000E+00  0.00000E+00    0.17400E+02  0.22628E+02 -0.40029E+02 -0.31424E+01  0.33935E+01  0.95884E+01      982.00
  0.71425E-01  0.63030E+02    0.37500E-01  0.37500E-01 -0.75000E-01  0.00000E+00  0.00000E+00  0.00000E+00    0.17175E+02  0.22930E+02 -0.40105E+02 -0.32715E+01  0.31832E+01  0.94258E+01      982.00
  0.95285E-01  0.63126E+02    0.50000E-01  0.50000E-01 -0.10000E+00  0.00000E+00  0.00000E+00  0.00000E+00    0.16976E+02  0.23219E+02 -0.40195E+02 -0.34091E+01  0.29538E+01  0.92994E+01      982.00
  0.11916E+00  0.63264E+02    0.62500E-01  0.62500E-01 -0.12500E+00  0.00000E+00  0.00000E+00  0.00000E+00    0.16794E+02  0.23505E+02 -0.40299E+02 -0.35403E+01  0.27346E+01  0.92092E+01      982.00
  0.14305E+00  0.63436E+02    0.75000E-01  0.75000E-01 -0.15000E+00  0.00000E+00  0.00000E+00  0.00000E+00    0.16624E+02  0.23791E+02 -0.40415E+02 -0.36579E+01  0.25393E+01  0.91479E+01      982.00
  0.16694E+00  0.63647E+02    0.87500E-01  0.87500E-01 -0.17500E+00  0.00000E+00  0.00000E+00  0.00000E+00    0.16484E+02  0.24061E+02 -0.40544E+02 -0.37607E+01  0.23719E+01  0.91281E+01      982.00
  0.19083E+00  0.63893E+02    0.10000E+00  0.10000E+00 -0.20000E+00  0.00000E+00  0.00000E+00  0.00000E+00    0.16366E+02  0.24321E+02 -0.40687E+02 -0.38505E+01  0.22328E+01  0.91405E+01      982.00
  0.21471E+00  0.64167E+02    0.11250E+00  0.11250E+00 -0.22500E+00  0.00000E+00  0.00000E+00  0.00000E+00    0.16270E+02  0.24572E+02 -0.40842E+02 -0.39292E+01  0.21201E+01  0.91805E+01      982.00
  0.23858E+00  0.64466E+02    0.12500E+00  0.12500E+00 -0.25000E+00  0.00000E+00  0.00000E+00  0.00000E+00    0.16194E+02  0.24812E+02 -0.41006E+02 -0.39991E+01  0.20314E+01  0.92450E+01      982.00
  0.26243E+00  0.64763E+02    0.13750E+00  0.13750E+00 -0.27500E+00  0.00000E+00  0.00000E+00  0.00000E+00    0.16126E+02  0.25042E+02 -0.41167E+02 -0.40556E+01  0.19626E+01  0.93197E+01      982.00
  0.28627E+00  0.65082E+02    0.15000E+00  0.15000E+00 -0.30000E+00  0.00000E+00  0.00000E+00  0.00000E+00    0.16082E+02  0.25257E+02 -0.41339E+02 -0.41076E+01  0.19119E+01  0.94159E+01      982.00
  0.31009E+00  0.65403E+02    0.16250E+00  0.16250E+00 -0.32500E+00  0.00000E+00  0.00000E+00  0.00000E+00    0.16051E+02  0.25458E+02 -0.41510E+02 -0.41510E+01  0.18759E+01  0.95227E+01      982.00
  0.33389E+00  0.65707E+02    0.17500E+00  0.17500E+00 -0.35000E+00  0.00000E+00  0.00000E+00  0.00000E+00    0.16021E+02  0.25648E+02 -0.41669E+02 -0.41816E+01  0.18519E+01  0.96346E+01      982.00
  0.35767E+00  0.66013E+02    0.18750E+00  0.18750E+00 -0.37500E+00  0.00000E+00  0.00000E+00  0.00000E+00    0.16010E+02  0.25820E+02 -0.41830E+02 -0.42058E+01  0.18395E+01  0.97543E+01      982.00
  0.38143E+00  0.66309E+02    0.20000E+00  0.20000E+00 -0.40000E+00  0.00000E+00  0.00000E+00  0.00000E+00    0.15999E+02  0.25983E+02 -0.41982E+02 -0.42162E+01  0.18353E+01  0.98835E+01      982.00
  0.40517E+00  0.66573E+02    0.21250E+00  0.21250E+00 -0.42500E+00  0.00000E+00  0.00000E+00  0.00000E+00    0.16014E+02  0.26109E+02 -0.42123E+02 -0.42195E+01  0.18386E+01  0.99960E+01      982.00
  0.42890E+00  0.66813E+02    0.22500E+00  0.22500E+00 -0.45000E+00  0.00000E+00  0.00000E+00  0.00000E+00    0.16016E+02  0.26228E+02 -0.42244E+02 -0.42058E+01  0.18493E+01  0.10120E+02      982.00
  0.45261E+00  0.67055E+02    0.23750E+00  0.23750E+00 -0.47500E+00  0.00000E+00  0.00000E+00  0.00000E+00    0.16034E+02  0.26334E+02 -0.42368E+02 -0.41855E+01  0.18662E+01  0.10246E+02      982.00
  0.47631E+00  0.67277E+02    0.25000E+00  0.25000E+00 -0.50000E+00  0.00000E+00  0.00000E+00  0.00000E+00    0.16060E+02  0.26422E+02 -0.42482E+02 -0.41543E+01  0.18875E+01  0.10369E+02      982.00
  0.49999E+00  0.67480E+02    0.26250E+00  0.26250E+00 -0.52500E+00  0.00000E+00  0.00000E+00  0.00000E+00    0.16091E+02  0.26495E+02 -0.42586E+02 -0.41131E+01  0.19124E+01  0.10490E+02      982.00
  0.52365E+00  0.67662E+02    0.27500E+00  0.27500E+00 -0.55000E+00  0.00000E+00  0.00000E+00  0.00000E+00    0.16130E+02  0.26550E+02 -0.42680E+02 -0.40631E+01  0.19397E+01  0.10605E+02      982.00
  0.54731E+00  0.67833E+02    0.28750E+00  0.28750E+00 -0.57500E+00  0.00000E+00  0.00000E+00  0.00000E+00    0.16174E+02  0.26594E+02 -0.42768E+02 -0.40064E+01  0.19688E+01  0.10719E+02      982.00
  0.57095E+00  0.67989E+02    0.30000E+00  0.30000E+00 -0.60000E+00  0.00000E+00  0.00000E+00  0.00000E+00    0.16224E+02  0.26626E+02 -0.42849E+02 -0.39444E+01  0.19985E+01  0.10827E+02      982.00
  0.59458E+00  0.68133E+02    0.31250E+00  0.31250E+00 -0.62500E+00  0.00000E+00  0.00000E+00  0.00000E+00    0.16278E+02  0.26647E+02 -0.42924E+02 -0.38787E+01  0.20280E+01  0.10929E+02      982.00
  0.61821E+00  0.68261E+02    0.32500E+00  0.32500E+00 -0.65000E+00  0.00000E+00  0.00000E+00  0.00000E+00    0.16336E+02  0.26657E+02 -0.42993E+02 -0.38106E+01  0.20562E+01  0.11023E+02      982.00
  0.64183E+00  0.68382E+02    0.33750E+00  0.33750E+00 -0.67500E+00  0.00000E+00  0.00000E+00  0.00000E+00    0.16398E+02  0.26661E+02 -0.43059E+02 -0.37423E+01  0.20833E+01  0.11112E+02      982.00
  0.66544E+00  0.68493E+02    0.35000E+00  0.35000E+00 -0.70000E+00  0.00000E+00  0.00000E+00  0.00000E+00    0.16462E+02  0.26659E+02 -0.43121E+02 -0.36742E+01  0.21086E+01  0.11193E+02      982.00
  0.68905E+00  0.68596E+02    0.36250E+00  0.36250E+00 -0.72500E+00  0.00000E+00  0.00000E+00  0.00000E+00    0.16527E+02  0.26652E+02 -0.43179E+02 -0.36074E+01  0.21319E+01  0.11268E+02      982.00
  0.71265E+00  0.68691E+02    0.37500E+00  0.37500E+00 -0.75000E+00  0.00000E+00  0.00000E+00  0.00000E+00    0.16594E+02  0.26641E+02 -0.43234E+02 -0.35424E+01  0.21530E+01  0.11336E+02      982.00
  0.73626E+00  0.68779E+02    0.38750E+00  0.38750E+00 -0.77500E+00  0.00000E+00  0.00000E+00  0.00000E+00    0.16661E+02  0.26626E+02 -0.43287E+02 -0.34796E+01  0.21719E+01  0.11397E+02      982.00
  0.75986E+00  0.68861E+02    0.40000E+00  0.40000E+00 -0.80000E+00  0.00000E+00  0.00000E+00  0.00000E+00    0.16727E+02  0.26610E+02 -0.43337E+02 -0.34192E+01  0.21888E+01  0.11452E+02      982.00
  0.78346E+00  0.68936E+02    0.41250E+00  0.41250E+00 -0.82500E+00  0.00000E+00  0.00000E+00  0.00000E+00    0.16793E+02  0.26591E+02 -0.43384E+02 -0.33614E+01  0.22037E+01  0.11501E+02      982.00
  0.80706E+00  0.69006E+02    0.42500E+00  0.42500E+00 -0.85000E+00  0.00000E+00  0.00000E+00  0.00000E+00    0.16858E+02  0.26571E+02 -0.43429E+02 -0.33062E+01  0.22169E+01  0.11544E+02      982.00
  0.83066E+00  0.69071E+02    0.43750E+00  0.43750E+00 -0.87500E+00  0.00000E+00  0.00000E+00  0.00000E+00    0.16921E+02  0.26551E+02 -0.43472E+02 -0.32535E+01  0.22284E+01  0.11582E+02      982.00
  0.85426E+00  0.69131E+02    0.45000E+00  0.45000E+00 -0.90000E+00  0.00000E+00  0.00000E+00  0.00000E+00    0.16983E+02  0.26530E+02 -0.43513E+02 -0.32033E+01  0.22385E+01  0.11616E+02      982.00
  0.87786E+00  0.69181E+02    0.46250E+00  0.46250E+00 -0.92500E+00  0.00000E+00  0.00000E+00  0.00000E+00    0.17039E+02  0.26507E+02 -0.43547E+02 -0.31494E+01  0.22489E+01  0.11651E+02      982.00
  0.90147E+00  0.69234E+02    0.47500E+00  0.47500E+00 -0.95000E+00  0.00000E+00  0.00000E+00  0.00000E+00    0.17096E+02  0.26488E+02 -0.43584E+02 -0.31033E+01  0.22569E+01  0.11677E+02      982.00
  0.92507E+00  0.69284E+02    0.48750E+00  0.48750E+00 -0.97500E+00  0.00000E+00  0.00000E+00  0.00000E+00    0.17150E+02  0.26469E+02 -0.43620E+02 -0.30598E+01  0.22639E+01  0.11700E+02      982.00
  0.94868E+00  0.69293E+02    0.50000E+00  0.50000E+00 -0.10000E+01  0.00000E+00  0.00000E+00  0.00000E+00    0.17197E+02  0.26436E+02 -0.43634E+02 -0.30126E+01  0.22596E+01  0.11707E+02      982.00
