          Evm          Svm            E11          E22          E33          E23          E13          E12         SDEV11       SDEV22       SDEV33       SDEV23       SDEV13       SDEV12      TEMP
  0.00000E+00  0.57589E+02    0.00000E+00  0.00000E+00  0.00000E+00  0.00000E+00  0.00000E+00  0.00000E+00    0.16688E+02  0.18507E+02 -0.35195E+02 -0.32441E+01  0.16202E+01  0.12746E+02      982.00
  0.22918E-01  0.57630E+02    0.12500E-01  0.12500E-01 -0.25000E-01  0.00000E+00  0.00000E+00  0.00000E+00    0.16958E+02  0.18205E+02 -0.35162E+02 -0.30857E+01  0.17950E+01  0.12909E+02      982.00
  0.45798E-01  0.57762E+02    0.25000E-01  0.25000E-01 -0.50000E-01  0.00000E+00  0.00000E+00  0.00000E+00    0.17162E+02  0.18005E+02 -0.35168E+02 -0.29726E+01  0.19122E+01  0.13111E+02      982.00
  0.68630E-01  0.57971E+02    0.37500E-01  0.37500E-01 -0.75000E-01  0.00000E+00  0.00000E+00  0.00000E+00    0.17335E+02  0.17872E+02 -0.35207E+02 -0.28756E+01  0.19971E+01  0.13350E+02      982.00
  0.91405E-01  0.58240E+02    0.50000E-01  0.50000E-01 -0.10000E+00  0.00000E+00  0.00000E+00  0.00000E+00    0.17482E+02  0.17792E+02 -0.35274E+02 -0.27886E+01  0.20551E+01  0.13617E+02      982.00
  0.11412E+00  0.58562E+02    0.62500E-01  0.62500E-01 -0.12500E+00  0.00000E+00  0.00000E+00  0.00000E+00    0.17608E+02  0.17759E+02 -0.35366E+02 -0.27096E+01  0.20877E+01  0.13906E+02      982.00
  0.13676E+00  0.58918E+02    0.75000E-01  0.75000E-01 -0.15000E+00  0.00000E+00  0.00000E+00  0.00000E+00    0.17722E+02  0.17758E+02 -0.35480E+02 -0.26317E+01  0.21032E+01  0.14201E+02      982.00
  0.15935E+00  0.59301E+02    0.87500E-01  0.87500E-01 -0.17500E+00  0.00000E+00  0.00000E+00  0.00000E+00    0.17819E+02  0.17789E+02 -0.35608E+02 -0.25588E+01  0.20960E+01  0.14502E+02      982.00
  0.18186E+00  0.59678E+02    0.10000E+00  0.10000E+00 -0.20000E+00  0.00000E+00  0.00000E+00  0.00000E+00    0.17897E+02  0.17840E+02 -0.35737E+02 -0.24991E+01  0.20734E+01  0.14791E+02      982.00
  0.20432E+00  0.60070E+02    0.11250E+00  0.11250E+00 -0.22500E+00  0.00000E+00  0.00000E+00  0.00000E+00    0.17973E+02  0.17904E+02 -0.35878E+02 -0.24320E+01  0.20405E+01  0.15077E+02      982.00
  0.22672E+00  0.60468E+02    0.12500E+00  0.12500E+00 -0.25000E+00  0.00000E+00  0.00000E+00  0.00000E+00    0.18045E+02  0.17977E+02 -0.36022E+02 -0.23647E+01  0.19974E+01  0.15363E+02      982.00
  0.24906E+00  0.60851E+02    0.13750E+00  0.13750E+00 -0.27500E+00  0.00000E+00  0.00000E+00  0.00000E+00    0.18113E+02  0.18054E+02 -0.36167E+02 -0.23144E+01  0.19568E+01  0.15622E+02      982.00
  0.27134E+00  0.61218E+02    0.15000E+00  0.15000E+00 -0.30000E+00  0.00000E+00  0.00000E+00  0.00000E+00    0.18180E+02  0.18130E+02 -0.36309E+02 -0.22690E+01  0.19162E+01  0.15863E+02      982.00
  0.29359E+00  0.61568E+02    0.16250E+00  0.16250E+00 -0.32500E+00  0.00000E+00  0.00000E+00  0.00000E+00    0.18245E+02  0.18202E+02 -0.36448E+02 -0.22286E+01  0.18777E+01  0.16085E+02      982.00
  0.31579E+00  0.61912E+02    0.17500E+00  0.17500E+00 -0.35000E+00  0.00000E+00  0.00000E+00  0.00000E+00    0.18310E+02  0.18273E+02 -0.36583E+02 -0.21803E+01  0.18301E+01  0.16305E+02      982.00
  0.33794E+00  0.62219E+02    0.18750E+00  0.18750E+00 -0.37500E+00  0.00000E+00  0.00000E+00  0.00000E+00    0.18375E+02  0.18336E+02 -0.36711E+02 -0.21511E+01  0.17979E+01  0.16486E+02      982.00
  0.36007E+00  0.62480E+02    0.20000E+00  0.20000E+00 -0.40000E+00  0.00000E+00  0.00000E+00  0.00000E+00    0.18438E+02  0.18389E+02 -0.36826E+02 -0.21453E+01  0.17882E+01  0.16622E+02      982.00
  0.38217E+00  0.62727E+02    0.21250E+00  0.21250E+00 -0.42500E+00  0.00000E+00  0.00000E+00  0.00000E+00    0.18494E+02  0.18437E+02 -0.36931E+02 -0.21183E+01  0.17576E+01  0.16765E+02      982.00
  0.40425E+00  0.62976E+02    0.22500E+00  0.22500E+00 -0.45000E+00  0.00000E+00  0.00000E+00  0.00000E+00    0.18555E+02  0.18482E+02 -0.37037E+02 -0.20936E+01  0.17278E+01  0.16907E+02      982.00
  0.42631E+00  0.63233E+02    0.23750E+00  0.23750E+00 -0.47500E+00  0.00000E+00  0.00000E+00  0.00000E+00    0.18622E+02  0.18525E+02 -0.37148E+02 -0.20702E+01  0.16977E+01  0.17050E+02      982.00
  0.44834E+00  0.63438E+02    0.25000E+00  0.25000E+00 -0.50000E+00  0.00000E+00  0.00000E+00  0.00000E+00    0.18680E+02  0.18559E+02 -0.37239E+02 -0.20593E+01  0.16812E+01  0.17155E+02      982.00
  0.47035E+00  0.63627E+02    0.26250E+00  0.26250E+00 -0.52500E+00  0.00000E+00  0.00000E+00  0.00000E+00    0.18738E+02  0.18588E+02 -0.37327E+02 -0.20519E+01  0.16683E+01  0.17248E+02      982.00
  0.49235E+00  0.63801E+02    0.27500E+00  0.27500E+00 -0.55000E+00  0.00000E+00  0.00000E+00  0.00000E+00    0.18795E+02  0.18613E+02 -0.37408E+02 -0.20463E+01  0.16575E+01  0.17332E+02      982.00
  0.51433E+00  0.63961E+02    0.28750E+00  0.28750E+00 -0.57500E+00  0.00000E+00  0.00000E+00  0.00000E+00    0.18850E+02  0.18633E+02 -0.37483E+02 -0.20422E+01  0.16484E+01  0.17407E+02      982.00
  0.53631E+00  0.64108E+02    0.30000E+00  0.30000E+00 -0.60000E+00  0.00000E+00  0.00000E+00  0.00000E+00    0.18903E+02  0.18650E+02 -0.37553E+02 -0.20395E+01  0.16408E+01  0.17475E+02      982.00
  0.55828E+00  0.64243E+02    0.31250E+00  0.31250E+00 -0.62500E+00  0.00000E+00  0.00000E+00  0.00000E+00    0.18954E+02  0.18664E+02 -0.37618E+02 -0.20378E+01  0.16345E+01  0.17536E+02      982.00
  0.58024E+00  0.64364E+02    0.32500E+00  0.32500E+00 -0.65000E+00  0.00000E+00  0.00000E+00  0.00000E+00    0.19007E+02  0.18666E+02 -0.37673E+02 -0.20342E+01  0.16246E+01  0.17598E+02      982.00
  0.60219E+00  0.64481E+02    0.33750E+00  0.33750E+00 -0.67500E+00  0.00000E+00  0.00000E+00  0.00000E+00    0.19057E+02  0.18674E+02 -0.37731E+02 -0.20345E+01  0.16204E+01  0.17647E+02      982.00
  0.62413E+00  0.64585E+02    0.35000E+00  0.35000E+00 -0.70000E+00  0.00000E+00  0.00000E+00  0.00000E+00    0.19104E+02  0.18679E+02 -0.37782E+02 -0.20355E+01  0.16174E+01  0.17691E+02      982.00
  0.64607E+00  0.64682E+02    0.36250E+00  0.36250E+00 -0.72500E+00  0.00000E+00  0.00000E+00  0.00000E+00    0.19149E+02  0.18682E+02 -0.37830E+02 -0.20370E+01  0.16150E+01  0.17732E+02      982.00
  0.66800E+00  0.64772E+02    0.37500E+00  0.37500E+00 -0.75000E+00  0.00000E+00  0.00000E+00  0.00000E+00    0.19192E+02  0.18683E+02 -0.37875E+02 -0.20389E+01  0.16132E+01  0.17769E+02      982.00
  0.68993E+00  0.64855E+02    0.38750E+00  0.38750E+00 -0.77500E+00  0.00000E+00  0.00000E+00  0.00000E+00    0.19234E+02  0.18682E+02 -0.37917E+02 -0.20411E+01  0.16119E+01  0.17803E+02      982.00
  0.71185E+00  0.64932E+02    0.40000E+00  0.40000E+00 -0.80000E+00  0.00000E+00  0.00000E+00  0.00000E+00    0.19275E+02  0.18680E+02 -0.37956E+02 -0.20436E+01  0.16110E+01  0.17835E+02      982.00
  0.73377E+00  0.65004E+02    0.41250E+00  0.41250E+00 -0.82500E+00  0.00000E+00  0.00000E+00  0.00000E+00    0.19315E+02  0.18677E+02 -0.37992E+02 -0.20464E+01  0.16104E+01  0.17863E+02      982.00
  0.75569E+00  0.65072E+02    0.42500E+00  0.42500E+00 -0.85000E+00  0.00000E+00  0.00000E+00  0.00000E+00    0.19354E+02  0.18672E+02 -0.38026E+02 -0.20493E+01  0.16102E+01  0.17890E+02      982.00
  0.77760E+00  0.65134E+02    0.43750E+00  0.43750E+00 -0.87500E+00  0.00000E+00  0.00000E+00  0.00000E+00    0.19391E+02  0.18666E+02 -0.38057E+02 -0.20524E+01  0.16102E+01  0.17915E+02      982.00
  0.79951E+00  0.65224E+02    0.45000E+00  0.45000E+00 -0.90000E+00  0.00000E+00  0.00000E+00  0.00000E+00    0.19452E+02  0.18649E+02 -0.38101E+02 -0.20554E+01  0.16081E+01  0.17954E+02      982.00
  0.82142E+00  0.65247E+02    0.46250E+00  0.46250E+00 -0.92500E+00  0.00000E+00  0.00000E+00  0.00000E+00    0.19464E+02  0.18650E+02 -0.38115E+02 -0.20586E+01  0.16102E+01  0.17959E+02      982.00
  0.84332E+00  0.65325E+02    0.47500E+00  0.47500E+00 -0.95000E+00  0.00000E+00  0.00000E+00  0.00000E+00    0.19521E+02  0.18631E+02 -0.38152E+02 -0.20625E+01  0.16095E+01  0.17993E+02      982.00
  0.86523E+00  0.65371E+02    0.48750E+00  0.48750E+00 -0.97500E+00  0.00000E+00  0.00000E+00  0.00000E+00    0.19558E+02  0.18617E+02 -0.38175E+02 -0.20660E+01  0.16098E+01  0.18010E+02      982.00
  0.88712E+00  0.65361E+02    0.50000E+00  0.50000E+00 -0.10000E+01  0.00000E+00  0.00000E+00  0.00000E+00    0.19537E+02  0.18635E+02 -0.38172E+02 -0.20649E+01  0.16135E+01  0.18004E+02      982.00
