          Evm          Svm            E11          E22          E33          E23          E13          E12         SDEV11       SDEV22       SDEV33       SDEV23       SDEV13       SDEV12      TEMP
  0.00000E+00  0.57994E+02    0.00000E+00  0.00000E+00  0.00000E+00  0.00000E+00  0.00000E+00  0.00000E+00    0.17150E+02  0.18825E+02 -0.35974E+02 -0.60434E+01 -0.70366E+01 -0.79849E+01      982.00
  0.23262E-01  0.58126E+02    0.12500E-01  0.12500E-01 -0.25000E-01  0.00000E+00  0.00000E+00  0.00000E+00    0.17266E+02  0.18882E+02 -0.36147E+02 -0.58155E+01 -0.70585E+01 -0.78693E+01      982.00
  0.46582E-01  0.58297E+02    0.25000E-01  0.25000E-01 -0.50000E-01  0.00000E+00  0.00000E+00  0.00000E+00    0.17349E+02  0.18979E+02 -0.36328E+02 -0.56294E+01 -0.70859E+01 -0.77788E+01      982.00
  0.69950E-01  0.58499E+02    0.37500E-01  0.37500E-01 -0.75000E-01  0.00000E+00  0.00000E+00  0.00000E+00    0.17431E+02  0.19085E+02 -0.36517E+02 -0.54695E+01 -0.71113E+01 -0.77090E+01      982.00
  0.93359E-01  0.58724E+02    0.50000E-01  0.50000E-01 -0.10000E+00  0.00000E+00  0.00000E+00  0.00000E+00    0.17514E+02  0.19200E+02 -0.36713E+02 -0.53393E+01 -0.71217E+01 -0.76603E+01      982.00
  0.11680E+00  0.58971E+02    0.62500E-01  0.62500E-01 -0.12500E+00  0.00000E+00  0.00000E+00  0.00000E+00    0.17611E+02  0.19309E+02 -0.36920E+02 -0.52276E+01 -0.71182E+01 -0.76277E+01      982.00
  0.14028E+00  0.59242E+02    0.75000E-01  0.75000E-01 -0.15000E+00  0.00000E+00  0.00000E+00  0.00000E+00    0.17724E+02  0.19414E+02 -0.37138E+02 -0.51345E+01 -0.71021E+01 -0.76121E+01      982.00
  0.16379E+00  0.59544E+02    0.87500E-01  0.87500E-01 -0.17500E+00  0.00000E+00  0.00000E+00  0.00000E+00    0.17854E+02  0.19517E+02 -0.37371E+02 -0.50610E+01 -0.70766E+01 -0.76144E+01      982.00
  0.18732E+00  0.59861E+02    0.10000E+00  0.10000E+00 -0.20000E+00  0.00000E+00  0.00000E+00  0.00000E+00    0.18008E+02  0.19606E+02 -0.37614E+02 -0.49945E+01 -0.70445E+01 -0.76248E+01      982.00
  0.21089E+00  0.60208E+02    0.11250E+00  0.11250E+00 -0.22500E+00  0.00000E+00  0.00000E+00  0.00000E+00    0.18182E+02  0.19690E+02 -0.37872E+02 -0.49418E+01 -0.70085E+01 -0.76477E+01      982.00
  0.23448E+00  0.60581E+02    0.12500E+00  0.12500E+00 -0.25000E+00  0.00000E+00  0.00000E+00  0.00000E+00    0.18373E+02  0.19772E+02 -0.38145E+02 -0.49016E+01 -0.69693E+01 -0.76805E+01      982.00
  0.25809E+00  0.60960E+02    0.13750E+00  0.13750E+00 -0.27500E+00  0.00000E+00  0.00000E+00  0.00000E+00    0.18586E+02  0.19836E+02 -0.38422E+02 -0.48641E+01 -0.69281E+01 -0.77133E+01      982.00
  0.28172E+00  0.61347E+02    0.15000E+00  0.15000E+00 -0.30000E+00  0.00000E+00  0.00000E+00  0.00000E+00    0.18815E+02  0.19888E+02 -0.38703E+02 -0.48322E+01 -0.68857E+01 -0.77467E+01      982.00
  0.30538E+00  0.61738E+02    0.16250E+00  0.16250E+00 -0.32500E+00  0.00000E+00  0.00000E+00  0.00000E+00    0.19059E+02  0.19927E+02 -0.38986E+02 -0.48056E+01 -0.68422E+01 -0.77787E+01      982.00
  0.32906E+00  0.62127E+02    0.17500E+00  0.17500E+00 -0.35000E+00  0.00000E+00  0.00000E+00  0.00000E+00    0.19314E+02  0.19954E+02 -0.39268E+02 -0.47833E+01 -0.67976E+01 -0.78074E+01      982.00
  0.35276E+00  0.62515E+02    0.18750E+00  0.18750E+00 -0.37500E+00  0.00000E+00  0.00000E+00  0.00000E+00    0.19574E+02  0.19974E+02 -0.39547E+02 -0.47691E+01 -0.67502E+01 -0.78337E+01      982.00
  0.37649E+00  0.62889E+02    0.20000E+00  0.20000E+00 -0.40000E+00  0.00000E+00  0.00000E+00  0.00000E+00    0.19844E+02  0.19975E+02 -0.39819E+02 -0.47543E+01 -0.67028E+01 -0.78519E+01      982.00
  0.40023E+00  0.63252E+02    0.21250E+00  0.21250E+00 -0.42500E+00  0.00000E+00  0.00000E+00  0.00000E+00    0.20119E+02  0.19965E+02 -0.40083E+02 -0.47420E+01 -0.66543E+01 -0.78636E+01      982.00
  0.42399E+00  0.63599E+02    0.22500E+00  0.22500E+00 -0.45000E+00  0.00000E+00  0.00000E+00  0.00000E+00    0.20401E+02  0.19937E+02 -0.40337E+02 -0.47281E+01 -0.66069E+01 -0.78669E+01      982.00
  0.44778E+00  0.63932E+02    0.23750E+00  0.23750E+00 -0.47500E+00  0.00000E+00  0.00000E+00  0.00000E+00    0.20678E+02  0.19904E+02 -0.40582E+02 -0.47201E+01 -0.65559E+01 -0.78650E+01      982.00
  0.47158E+00  0.64249E+02    0.25000E+00  0.25000E+00 -0.50000E+00  0.00000E+00  0.00000E+00  0.00000E+00    0.20954E+02  0.19862E+02 -0.40816E+02 -0.47138E+01 -0.65034E+01 -0.78564E+01      982.00
  0.49540E+00  0.64549E+02    0.26250E+00  0.26250E+00 -0.52500E+00  0.00000E+00  0.00000E+00  0.00000E+00    0.21227E+02  0.19811E+02 -0.41038E+02 -0.47088E+01 -0.64494E+01 -0.78413E+01      982.00
  0.51925E+00  0.64833E+02    0.27500E+00  0.27500E+00 -0.55000E+00  0.00000E+00  0.00000E+00  0.00000E+00    0.21501E+02  0.19750E+02 -0.41251E+02 -0.46995E+01 -0.63954E+01 -0.78182E+01      982.00
  0.54311E+00  0.65100E+02    0.28750E+00  0.28750E+00 -0.57500E+00  0.00000E+00  0.00000E+00  0.00000E+00    0.21766E+02  0.19685E+02 -0.41451E+02 -0.46967E+01 -0.63393E+01 -0.77912E+01      982.00
  0.56698E+00  0.65350E+02    0.30000E+00  0.30000E+00 -0.60000E+00  0.00000E+00  0.00000E+00  0.00000E+00    0.22025E+02  0.19615E+02 -0.41639E+02 -0.46944E+01 -0.62821E+01 -0.77585E+01      982.00
  0.59088E+00  0.65584E+02    0.31250E+00  0.31250E+00 -0.62500E+00  0.00000E+00  0.00000E+00  0.00000E+00    0.22278E+02  0.19539E+02 -0.41817E+02 -0.46930E+01 -0.62240E+01 -0.77210E+01      982.00
  0.61479E+00  0.65797E+02    0.32500E+00  0.32500E+00 -0.65000E+00  0.00000E+00  0.00000E+00  0.00000E+00    0.22527E+02  0.19453E+02 -0.41980E+02 -0.46866E+01 -0.61701E+01 -0.76786E+01      982.00
  0.63871E+00  0.66002E+02    0.33750E+00  0.33750E+00 -0.67500E+00  0.00000E+00  0.00000E+00  0.00000E+00    0.22767E+02  0.19370E+02 -0.42137E+02 -0.46860E+01 -0.61109E+01 -0.76325E+01      982.00
  0.66265E+00  0.66186E+02    0.35000E+00  0.35000E+00 -0.70000E+00  0.00000E+00  0.00000E+00  0.00000E+00    0.23005E+02  0.19274E+02 -0.42279E+02 -0.46815E+01 -0.60570E+01 -0.75804E+01      982.00
  0.68661E+00  0.66365E+02    0.36250E+00  0.36250E+00 -0.72500E+00  0.00000E+00  0.00000E+00  0.00000E+00    0.23231E+02  0.19187E+02 -0.42418E+02 -0.46816E+01 -0.59967E+01 -0.75272E+01      982.00
  0.71058E+00  0.66532E+02    0.37500E+00  0.37500E+00 -0.75000E+00  0.00000E+00  0.00000E+00  0.00000E+00    0.23451E+02  0.19098E+02 -0.42549E+02 -0.46823E+01 -0.59359E+01 -0.74712E+01      982.00
  0.73456E+00  0.66683E+02    0.38750E+00  0.38750E+00 -0.77500E+00  0.00000E+00  0.00000E+00  0.00000E+00    0.23675E+02  0.18993E+02 -0.42668E+02 -0.46797E+01 -0.58778E+01 -0.74048E+01      982.00
  0.75855E+00  0.66828E+02    0.40000E+00  0.40000E+00 -0.80000E+00  0.00000E+00  0.00000E+00  0.00000E+00    0.23881E+02  0.18902E+02 -0.42783E+02 -0.46806E+01 -0.58170E+01 -0.73435E+01      982.00
  0.78256E+00  0.66963E+02    0.41250E+00  0.41250E+00 -0.82500E+00  0.00000E+00  0.00000E+00  0.00000E+00    0.24079E+02  0.18811E+02 -0.42890E+02 -0.46822E+01 -0.57560E+01 -0.72802E+01      982.00
  0.80658E+00  0.67086E+02    0.42500E+00  0.42500E+00 -0.85000E+00  0.00000E+00  0.00000E+00  0.00000E+00    0.24296E+02  0.18696E+02 -0.42992E+02 -0.46807E+01 -0.56894E+01 -0.71989E+01      982.00
  0.83061E+00  0.67202E+02    0.43750E+00  0.43750E+00 -0.87500E+00  0.00000E+00  0.00000E+00  0.00000E+00    0.24482E+02  0.18604E+02 -0.43086E+02 -0.46822E+01 -0.56290E+01 -0.71315E+01      982.00
  0.85466E+00  0.67311E+02    0.45000E+00  0.45000E+00 -0.90000E+00  0.00000E+00  0.00000E+00  0.00000E+00    0.24661E+02  0.18512E+02 -0.43173E+02 -0.46849E+01 -0.55689E+01 -0.70631E+01      982.00
  0.87871E+00  0.67413E+02    0.46250E+00  0.46250E+00 -0.92500E+00  0.00000E+00  0.00000E+00  0.00000E+00    0.24835E+02  0.18421E+02 -0.43256E+02 -0.46879E+01 -0.55093E+01 -0.69932E+01      982.00
  0.90277E+00  0.67449E+02    0.47500E+00  0.47500E+00 -0.95000E+00  0.00000E+00  0.00000E+00  0.00000E+00    0.24934E+02  0.18366E+02 -0.43300E+02 -0.46838E+01 -0.54253E+01 -0.69386E+01      982.00
  0.92684E+00  0.67484E+02    0.48750E+00  0.48750E+00 -0.97500E+00  0.00000E+00  0.00000E+00  0.00000E+00    0.25068E+02  0.18277E+02 -0.43344E+02 -0.46733E+01 -0.53458E+01 -0.68595E+01      982.00
  0.95093E+00  0.67512E+02    0.50000E+00  0.50000E+00 -0.10000E+01  0.00000E+00  0.00000E+00  0.00000E+00    0.25193E+02  0.18190E+02 -0.43383E+02 -0.46601E+01 -0.52682E+01 -0.67829E+01      982.00
