          Evm          Svm            E11          E22          E33          E23          E13          E12         SDEV11       SDEV22       SDEV33       SDEV23       SDEV13       SDEV12      TEMP
  0.00000E+00  0.59477E+02    0.00000E+00  0.00000E+00  0.00000E+00  0.00000E+00  0.00000E+00  0.00000E+00    0.22605E+02  0.14296E+02 -0.36901E+02 -0.29610E+01  0.40238E+00  0.11477E+02      982.00
  0.23266E-01  0.59614E+02    0.12500E-01  0.12500E-01 -0.25000E-01  0.00000E+00  0.00000E+00  0.00000E+00    0.22455E+02  0.14491E+02 -0.36946E+02 -0.29441E+01  0.47405E+00  0.11666E+02      982.00
  0.46507E-01  0.59803E+02    0.25000E-01  0.25000E-01 -0.50000E-01  0.00000E+00  0.00000E+00  0.00000E+00    0.22364E+02  0.14665E+02 -0.37029E+02 -0.29126E+01  0.56808E+00  0.11837E+02      982.00
  0.69726E-01  0.60024E+02    0.37500E-01  0.37500E-01 -0.75000E-01  0.00000E+00  0.00000E+00  0.00000E+00    0.22307E+02  0.14836E+02 -0.37143E+02 -0.28707E+01  0.69817E+00  0.11983E+02      982.00
  0.92931E-01  0.60255E+02    0.50000E-01  0.50000E-01 -0.10000E+00  0.00000E+00  0.00000E+00  0.00000E+00    0.22290E+02  0.14986E+02 -0.37276E+02 -0.28224E+01  0.85960E+00  0.12084E+02      982.00
  0.11613E+00  0.60469E+02    0.62500E-01  0.62500E-01 -0.12500E+00  0.00000E+00  0.00000E+00  0.00000E+00    0.22326E+02  0.15092E+02 -0.37418E+02 -0.27671E+01  0.10453E+01  0.12120E+02      982.00
  0.13934E+00  0.60627E+02    0.75000E-01  0.75000E-01 -0.15000E+00  0.00000E+00  0.00000E+00  0.00000E+00    0.22420E+02  0.15125E+02 -0.37546E+02 -0.26855E+01  0.12463E+01  0.12079E+02      982.00
  0.16256E+00  0.60764E+02    0.87500E-01  0.87500E-01 -0.17500E+00  0.00000E+00  0.00000E+00  0.00000E+00    0.22574E+02  0.15095E+02 -0.37669E+02 -0.25566E+01  0.14463E+01  0.11998E+02      982.00
  0.18581E+00  0.60903E+02    0.10000E+00  0.10000E+00 -0.20000E+00  0.00000E+00  0.00000E+00  0.00000E+00    0.22760E+02  0.15032E+02 -0.37791E+02 -0.23753E+01  0.16347E+01  0.11917E+02      982.00
  0.20907E+00  0.61066E+02    0.11250E+00  0.11250E+00 -0.22500E+00  0.00000E+00  0.00000E+00  0.00000E+00    0.22967E+02  0.14951E+02 -0.37917E+02 -0.21585E+01  0.18006E+01  0.11863E+02      982.00
  0.23236E+00  0.61258E+02    0.12500E+00  0.12500E+00 -0.25000E+00  0.00000E+00  0.00000E+00  0.00000E+00    0.23180E+02  0.14866E+02 -0.38047E+02 -0.19320E+01  0.19338E+01  0.11849E+02      982.00
  0.25565E+00  0.61476E+02    0.13750E+00  0.13750E+00 -0.27500E+00  0.00000E+00  0.00000E+00  0.00000E+00    0.23394E+02  0.14784E+02 -0.38178E+02 -0.17130E+01  0.20359E+01  0.11875E+02      982.00
  0.27894E+00  0.61717E+02    0.15000E+00  0.15000E+00 -0.30000E+00  0.00000E+00  0.00000E+00  0.00000E+00    0.23603E+02  0.14707E+02 -0.38309E+02 -0.15103E+01  0.21108E+01  0.11935E+02      982.00
  0.30222E+00  0.61980E+02    0.16250E+00  0.16250E+00 -0.32500E+00  0.00000E+00  0.00000E+00  0.00000E+00    0.23801E+02  0.14640E+02 -0.38441E+02 -0.13267E+01  0.21562E+01  0.12036E+02      982.00
  0.32547E+00  0.62254E+02    0.17500E+00  0.17500E+00 -0.35000E+00  0.00000E+00  0.00000E+00  0.00000E+00    0.23978E+02  0.14593E+02 -0.38572E+02 -0.11777E+01  0.21789E+01  0.12161E+02      982.00
  0.34871E+00  0.62534E+02    0.18750E+00  0.18750E+00 -0.37500E+00  0.00000E+00  0.00000E+00  0.00000E+00    0.24140E+02  0.14559E+02 -0.38700E+02 -0.10535E+01  0.21817E+01  0.12306E+02      982.00
  0.37192E+00  0.62804E+02    0.20000E+00  0.20000E+00 -0.40000E+00  0.00000E+00  0.00000E+00  0.00000E+00    0.24283E+02  0.14533E+02 -0.38816E+02 -0.94866E+00  0.21603E+01  0.12467E+02      982.00
  0.39509E+00  0.63084E+02    0.21250E+00  0.21250E+00 -0.42500E+00  0.00000E+00  0.00000E+00  0.00000E+00    0.24417E+02  0.14520E+02 -0.38937E+02 -0.86816E+00  0.21277E+01  0.12637E+02      982.00
  0.41824E+00  0.63359E+02    0.22500E+00  0.22500E+00 -0.45000E+00  0.00000E+00  0.00000E+00  0.00000E+00    0.24541E+02  0.14513E+02 -0.39053E+02 -0.80488E+00  0.20811E+01  0.12811E+02      982.00
  0.44135E+00  0.63618E+02    0.23750E+00  0.23750E+00 -0.47500E+00  0.00000E+00  0.00000E+00  0.00000E+00    0.24655E+02  0.14510E+02 -0.39165E+02 -0.76135E+00  0.20339E+01  0.12969E+02      982.00
  0.46444E+00  0.63877E+02    0.25000E+00  0.25000E+00 -0.50000E+00  0.00000E+00  0.00000E+00  0.00000E+00    0.24765E+02  0.14508E+02 -0.39273E+02 -0.72412E+00  0.19669E+01  0.13139E+02      982.00
  0.48749E+00  0.64127E+02    0.26250E+00  0.26250E+00 -0.52500E+00  0.00000E+00  0.00000E+00  0.00000E+00    0.24873E+02  0.14504E+02 -0.39377E+02 -0.69747E+00  0.18931E+01  0.13301E+02      982.00
  0.51052E+00  0.64387E+02    0.27500E+00  0.27500E+00 -0.55000E+00  0.00000E+00  0.00000E+00  0.00000E+00    0.24990E+02  0.14497E+02 -0.39487E+02 -0.67858E+00  0.18151E+01  0.13461E+02      982.00
  0.53352E+00  0.64575E+02    0.28750E+00  0.28750E+00 -0.57500E+00  0.00000E+00  0.00000E+00  0.00000E+00    0.25084E+02  0.14480E+02 -0.39564E+02 -0.67052E+00  0.17299E+01  0.13580E+02      982.00
  0.55650E+00  0.64810E+02    0.30000E+00  0.30000E+00 -0.60000E+00  0.00000E+00  0.00000E+00  0.00000E+00    0.25206E+02  0.14465E+02 -0.39671E+02 -0.66981E+00  0.16678E+01  0.13701E+02      982.00
  0.57945E+00  0.65018E+02    0.31250E+00  0.31250E+00 -0.62500E+00  0.00000E+00  0.00000E+00  0.00000E+00    0.25329E+02  0.14436E+02 -0.39765E+02 -0.67875E+00  0.16004E+01  0.13802E+02      982.00
  0.60238E+00  0.65215E+02    0.32500E+00  0.32500E+00 -0.65000E+00  0.00000E+00  0.00000E+00  0.00000E+00    0.25460E+02  0.14398E+02 -0.39858E+02 -0.69934E+00  0.15421E+01  0.13882E+02      982.00
  0.62530E+00  0.65402E+02    0.33750E+00  0.33750E+00 -0.67500E+00  0.00000E+00  0.00000E+00  0.00000E+00    0.25601E+02  0.14350E+02 -0.39951E+02 -0.73389E+00  0.14959E+01  0.13940E+02      982.00
  0.64821E+00  0.65592E+02    0.35000E+00  0.35000E+00 -0.70000E+00  0.00000E+00  0.00000E+00  0.00000E+00    0.25746E+02  0.14306E+02 -0.40051E+02 -0.78241E+00  0.14692E+01  0.13983E+02      982.00
  0.67111E+00  0.65759E+02    0.36250E+00  0.36250E+00 -0.72500E+00  0.00000E+00  0.00000E+00  0.00000E+00    0.25901E+02  0.14245E+02 -0.40146E+02 -0.85199E+00  0.14531E+01  0.13994E+02      982.00
  0.69400E+00  0.65917E+02    0.37500E+00  0.37500E+00 -0.75000E+00  0.00000E+00  0.00000E+00  0.00000E+00    0.26064E+02  0.14179E+02 -0.40242E+02 -0.94328E+00  0.14547E+01  0.13981E+02      982.00
  0.71690E+00  0.66069E+02    0.38750E+00  0.38750E+00 -0.77500E+00  0.00000E+00  0.00000E+00  0.00000E+00    0.26231E+02  0.14111E+02 -0.40342E+02 -0.10572E+01  0.14747E+01  0.13943E+02      982.00
  0.73979E+00  0.66208E+02    0.40000E+00  0.40000E+00 -0.80000E+00  0.00000E+00  0.00000E+00  0.00000E+00    0.26390E+02  0.14049E+02 -0.40440E+02 -0.11886E+01  0.15124E+01  0.13887E+02      982.00
  0.76270E+00  0.66349E+02    0.41250E+00  0.41250E+00 -0.82500E+00  0.00000E+00  0.00000E+00  0.00000E+00    0.26548E+02  0.13998E+02 -0.40546E+02 -0.13346E+01  0.15629E+01  0.13813E+02      982.00
  0.78561E+00  0.66489E+02    0.42500E+00  0.42500E+00 -0.85000E+00  0.00000E+00  0.00000E+00  0.00000E+00    0.26708E+02  0.13951E+02 -0.40659E+02 -0.14997E+01  0.16259E+01  0.13717E+02      982.00
  0.80855E+00  0.66628E+02    0.43750E+00  0.43750E+00 -0.87500E+00  0.00000E+00  0.00000E+00  0.00000E+00    0.26858E+02  0.13919E+02 -0.40777E+02 -0.16721E+01  0.16968E+01  0.13608E+02      982.00
  0.83150E+00  0.66767E+02    0.45000E+00  0.45000E+00 -0.90000E+00  0.00000E+00  0.00000E+00  0.00000E+00    0.26996E+02  0.13903E+02 -0.40899E+02 -0.18450E+01  0.17709E+01  0.13491E+02      982.00
  0.85447E+00  0.66905E+02    0.46250E+00  0.46250E+00 -0.92500E+00  0.00000E+00  0.00000E+00  0.00000E+00    0.27119E+02  0.13906E+02 -0.41025E+02 -0.20129E+01  0.18446E+01  0.13368E+02      982.00
  0.87746E+00  0.67043E+02    0.47500E+00  0.47500E+00 -0.95000E+00  0.00000E+00  0.00000E+00  0.00000E+00    0.27228E+02  0.13927E+02 -0.41155E+02 -0.21711E+01  0.19145E+01  0.13244E+02      982.00
  0.90048E+00  0.67180E+02    0.48750E+00  0.48750E+00 -0.97500E+00  0.00000E+00  0.00000E+00  0.00000E+00    0.27322E+02  0.13964E+02 -0.41286E+02 -0.23170E+01  0.19786E+01  0.13120E+02      982.00
  0.92353E+00  0.67316E+02    0.50000E+00  0.50000E+00 -0.10000E+01  0.00000E+00  0.00000E+00  0.00000E+00    0.27402E+02  0.14015E+02 -0.41417E+02 -0.24488E+01  0.20355E+01  0.12999E+02      982.00
