          Evm          Svm            E11          E22          E33          E23          E13          E12         SDEV11       SDEV22       SDEV33       SDEV23       SDEV13       SDEV12      TEMP
  0.00000E+00  0.64212E+02    0.00000E+00  0.00000E+00  0.00000E+00  0.00000E+00  0.00000E+00  0.00000E+00    0.23790E+02  0.17643E+02 -0.41433E+02 -0.40466E+01 -0.34709E+01 -0.70001E+01      982.00
  0.24197E-01  0.64256E+02    0.12500E-01  0.12500E-01 -0.25000E-01  0.00000E+00  0.00000E+00  0.00000E+00    0.24059E+02  0.17456E+02 -0.41515E+02 -0.38018E+01 -0.34354E+01 -0.68226E+01      982.00
  0.48425E-01  0.64140E+02    0.25000E-01  0.25000E-01 -0.50000E-01  0.00000E+00  0.00000E+00  0.00000E+00    0.24142E+02  0.17367E+02 -0.41509E+02 -0.35816E+01 -0.33787E+01 -0.65829E+01      982.00
  0.72694E-01  0.64058E+02    0.37500E-01  0.37500E-01 -0.75000E-01  0.00000E+00  0.00000E+00  0.00000E+00    0.24238E+02  0.17277E+02 -0.41515E+02 -0.33203E+01 -0.34578E+01 -0.63338E+01      982.00
  0.96997E-01  0.64100E+02    0.50000E-01  0.50000E-01 -0.10000E+00  0.00000E+00  0.00000E+00  0.00000E+00    0.24401E+02  0.17175E+02 -0.41577E+02 -0.30584E+01 -0.36560E+01 -0.61137E+01      982.00
  0.12132E+00  0.64239E+02    0.62500E-01  0.62500E-01 -0.12500E+00  0.00000E+00  0.00000E+00  0.00000E+00    0.24608E+02  0.17072E+02 -0.41681E+02 -0.28291E+01 -0.38948E+01 -0.59327E+01      982.00
  0.14565E+00  0.64444E+02    0.75000E-01  0.75000E-01 -0.15000E+00  0.00000E+00  0.00000E+00  0.00000E+00    0.24841E+02  0.16974E+02 -0.41815E+02 -0.26412E+01 -0.41230E+01 -0.57931E+01      982.00
  0.16998E+00  0.64701E+02    0.87500E-01  0.87500E-01 -0.17500E+00  0.00000E+00  0.00000E+00  0.00000E+00    0.25103E+02  0.16868E+02 -0.41971E+02 -0.24853E+01 -0.43212E+01 -0.56930E+01      982.00
  0.19431E+00  0.64997E+02    0.10000E+00  0.10000E+00 -0.20000E+00  0.00000E+00  0.00000E+00  0.00000E+00    0.25384E+02  0.16762E+02 -0.42147E+02 -0.23589E+01 -0.44818E+01 -0.56287E+01      982.00
  0.21863E+00  0.65320E+02    0.11250E+00  0.11250E+00 -0.22500E+00  0.00000E+00  0.00000E+00  0.00000E+00    0.25677E+02  0.16660E+02 -0.42337E+02 -0.22583E+01 -0.46046E+01 -0.55932E+01      982.00
  0.24293E+00  0.65668E+02    0.12500E+00  0.12500E+00 -0.25000E+00  0.00000E+00  0.00000E+00  0.00000E+00    0.25987E+02  0.16554E+02 -0.42540E+02 -0.21721E+01 -0.46975E+01 -0.55796E+01      982.00
  0.26722E+00  0.66024E+02    0.13750E+00  0.13750E+00 -0.27500E+00  0.00000E+00  0.00000E+00  0.00000E+00    0.26294E+02  0.16454E+02 -0.42749E+02 -0.21040E+01 -0.47619E+01 -0.55822E+01      982.00
  0.29150E+00  0.66385E+02    0.15000E+00  0.15000E+00 -0.30000E+00  0.00000E+00  0.00000E+00  0.00000E+00    0.26608E+02  0.16351E+02 -0.42959E+02 -0.20420E+01 -0.48060E+01 -0.55931E+01      982.00
  0.31577E+00  0.66747E+02    0.16250E+00  0.16250E+00 -0.32500E+00  0.00000E+00  0.00000E+00  0.00000E+00    0.26912E+02  0.16259E+02 -0.43172E+02 -0.19933E+01 -0.48320E+01 -0.56117E+01      982.00
  0.34003E+00  0.67094E+02    0.17500E+00  0.17500E+00 -0.35000E+00  0.00000E+00  0.00000E+00  0.00000E+00    0.27200E+02  0.16176E+02 -0.43376E+02 -0.19562E+01 -0.48432E+01 -0.56338E+01      982.00
  0.36427E+00  0.67428E+02    0.18750E+00  0.18750E+00 -0.37500E+00  0.00000E+00  0.00000E+00  0.00000E+00    0.27480E+02  0.16094E+02 -0.43574E+02 -0.19200E+01 -0.48446E+01 -0.56543E+01      982.00
  0.38850E+00  0.67747E+02    0.20000E+00  0.20000E+00 -0.40000E+00  0.00000E+00  0.00000E+00  0.00000E+00    0.27739E+02  0.16024E+02 -0.43763E+02 -0.18956E+01 -0.48365E+01 -0.56757E+01      982.00
  0.41273E+00  0.68044E+02    0.21250E+00  0.21250E+00 -0.42500E+00  0.00000E+00  0.00000E+00  0.00000E+00    0.27986E+02  0.15953E+02 -0.43939E+02 -0.18694E+01 -0.48239E+01 -0.56934E+01      982.00
  0.43694E+00  0.68327E+02    0.22500E+00  0.22500E+00 -0.45000E+00  0.00000E+00  0.00000E+00  0.00000E+00    0.28212E+02  0.15895E+02 -0.44108E+02 -0.18544E+01 -0.48047E+01 -0.57107E+01      982.00
  0.46115E+00  0.68584E+02    0.23750E+00  0.23750E+00 -0.47500E+00  0.00000E+00  0.00000E+00  0.00000E+00    0.28427E+02  0.15833E+02 -0.44261E+02 -0.18352E+01 -0.47850E+01 -0.57238E+01      982.00
  0.48535E+00  0.68830E+02    0.25000E+00  0.25000E+00 -0.50000E+00  0.00000E+00  0.00000E+00  0.00000E+00    0.28622E+02  0.15787E+02 -0.44409E+02 -0.18264E+01 -0.47594E+01 -0.57355E+01      982.00
  0.50955E+00  0.69057E+02    0.26250E+00  0.26250E+00 -0.52500E+00  0.00000E+00  0.00000E+00  0.00000E+00    0.28803E+02  0.15744E+02 -0.44546E+02 -0.18197E+01 -0.47318E+01 -0.57444E+01      982.00
  0.53374E+00  0.69263E+02    0.27500E+00  0.27500E+00 -0.55000E+00  0.00000E+00  0.00000E+00  0.00000E+00    0.28975E+02  0.15694E+02 -0.44670E+02 -0.18079E+01 -0.47066E+01 -0.57497E+01      982.00
  0.55792E+00  0.69457E+02    0.28750E+00  0.28750E+00 -0.57500E+00  0.00000E+00  0.00000E+00  0.00000E+00    0.29130E+02  0.15658E+02 -0.44788E+02 -0.18042E+01 -0.46767E+01 -0.57537E+01      982.00
  0.58210E+00  0.69620E+02    0.30000E+00  0.30000E+00 -0.60000E+00  0.00000E+00  0.00000E+00  0.00000E+00    0.29270E+02  0.15617E+02 -0.44887E+02 -0.17939E+01 -0.46492E+01 -0.57556E+01      982.00
  0.60628E+00  0.69783E+02    0.31250E+00  0.31250E+00 -0.62500E+00  0.00000E+00  0.00000E+00  0.00000E+00    0.29402E+02  0.15585E+02 -0.44987E+02 -0.17914E+01 -0.46187E+01 -0.57552E+01      982.00
  0.63045E+00  0.69937E+02    0.32500E+00  0.32500E+00 -0.65000E+00  0.00000E+00  0.00000E+00  0.00000E+00    0.29525E+02  0.15556E+02 -0.45081E+02 -0.17909E+01 -0.45879E+01 -0.57540E+01      982.00
  0.65463E+00  0.70076E+02    0.33750E+00  0.33750E+00 -0.67500E+00  0.00000E+00  0.00000E+00  0.00000E+00    0.29650E+02  0.15516E+02 -0.45166E+02 -0.17856E+01 -0.45595E+01 -0.57480E+01      982.00
  0.67880E+00  0.70207E+02    0.35000E+00  0.35000E+00 -0.70000E+00  0.00000E+00  0.00000E+00  0.00000E+00    0.29757E+02  0.15490E+02 -0.45247E+02 -0.17856E+01 -0.45289E+01 -0.57440E+01      982.00
  0.70296E+00  0.70327E+02    0.36250E+00  0.36250E+00 -0.72500E+00  0.00000E+00  0.00000E+00  0.00000E+00    0.29856E+02  0.15465E+02 -0.45321E+02 -0.17863E+01 -0.44987E+01 -0.57391E+01      982.00
  0.72713E+00  0.70448E+02    0.37500E+00  0.37500E+00 -0.75000E+00  0.00000E+00  0.00000E+00  0.00000E+00    0.29968E+02  0.15428E+02 -0.45396E+02 -0.17843E+01 -0.44628E+01 -0.57261E+01      982.00
  0.75130E+00  0.70549E+02    0.38750E+00  0.38750E+00 -0.77500E+00  0.00000E+00  0.00000E+00  0.00000E+00    0.30054E+02  0.15404E+02 -0.45459E+02 -0.17841E+01 -0.44336E+01 -0.57195E+01      982.00
  0.77546E+00  0.70643E+02    0.40000E+00  0.40000E+00 -0.80000E+00  0.00000E+00  0.00000E+00  0.00000E+00    0.30134E+02  0.15383E+02 -0.45517E+02 -0.17852E+01 -0.44053E+01 -0.57124E+01      982.00
  0.79962E+00  0.70729E+02    0.41250E+00  0.41250E+00 -0.82500E+00  0.00000E+00  0.00000E+00  0.00000E+00    0.30209E+02  0.15361E+02 -0.45571E+02 -0.17865E+01 -0.43778E+01 -0.57049E+01      982.00
  0.82378E+00  0.70807E+02    0.42500E+00  0.42500E+00 -0.85000E+00  0.00000E+00  0.00000E+00  0.00000E+00    0.30288E+02  0.15330E+02 -0.45618E+02 -0.17865E+01 -0.43509E+01 -0.56883E+01      982.00
  0.84794E+00  0.70882E+02    0.43750E+00  0.43750E+00 -0.87500E+00  0.00000E+00  0.00000E+00  0.00000E+00    0.30355E+02  0.15311E+02 -0.45666E+02 -0.17871E+01 -0.43242E+01 -0.56803E+01      982.00
  0.87210E+00  0.70885E+02    0.45000E+00  0.45000E+00 -0.90000E+00  0.00000E+00  0.00000E+00  0.00000E+00    0.30367E+02  0.15308E+02 -0.45675E+02 -0.17910E+01 -0.42672E+01 -0.56661E+01      982.00
  0.89626E+00  0.70883E+02    0.46250E+00  0.46250E+00 -0.92500E+00  0.00000E+00  0.00000E+00  0.00000E+00    0.30374E+02  0.15302E+02 -0.45676E+02 -0.17909E+01 -0.42450E+01 -0.56646E+01      982.00
  0.92043E+00  0.70886E+02    0.47500E+00  0.47500E+00 -0.95000E+00  0.00000E+00  0.00000E+00  0.00000E+00    0.30397E+02  0.15284E+02 -0.45681E+02 -0.17865E+01 -0.42062E+01 -0.56451E+01      982.00
  0.94459E+00  0.70891E+02    0.48750E+00  0.48750E+00 -0.97500E+00  0.00000E+00  0.00000E+00  0.00000E+00    0.30421E+02  0.15265E+02 -0.45687E+02 -0.17827E+01 -0.41706E+01 -0.56310E+01      982.00
  0.96876E+00  0.70894E+02    0.50000E+00  0.50000E+00 -0.10000E+01  0.00000E+00  0.00000E+00  0.00000E+00    0.30444E+02  0.15247E+02 -0.45691E+02 -0.17789E+01 -0.41364E+01 -0.56170E+01      982.00
