          Evm          Svm            E11          E22          E33          E23          E13          E12         SDEV11       SDEV22       SDEV33       SDEV23       SDEV13       SDEV12      TEMP
  0.00000E+00  0.63357E+02    0.00000E+00  0.00000E+00  0.00000E+00  0.00000E+00  0.00000E+00  0.00000E+00    0.19334E+02  0.20771E+02 -0.40104E+02  0.47763E+01 -0.49894E+01  0.91404E+01      982.00
  0.23737E-01  0.63430E+02    0.12500E-01  0.12500E-01 -0.25000E-01  0.00000E+00  0.00000E+00  0.00000E+00    0.19727E+02  0.20420E+02 -0.40147E+02  0.45976E+01 -0.50720E+01  0.92370E+01      982.00
  0.47472E-01  0.63511E+02    0.25000E-01  0.25000E-01 -0.50000E-01  0.00000E+00  0.00000E+00  0.00000E+00    0.19989E+02  0.20211E+02 -0.40201E+02  0.44362E+01 -0.50472E+01  0.93433E+01      982.00
  0.71208E-01  0.63616E+02    0.37500E-01  0.37500E-01 -0.75000E-01  0.00000E+00  0.00000E+00  0.00000E+00    0.20187E+02  0.20080E+02 -0.40267E+02  0.42670E+01 -0.49727E+01  0.94858E+01      982.00
  0.94945E-01  0.63758E+02    0.50000E-01  0.50000E-01 -0.10000E+00  0.00000E+00  0.00000E+00  0.00000E+00    0.20332E+02  0.20017E+02 -0.40350E+02  0.40978E+01 -0.48666E+01  0.96661E+01      982.00
  0.11868E+00  0.63938E+02    0.62500E-01  0.62500E-01 -0.12500E+00  0.00000E+00  0.00000E+00  0.00000E+00    0.20448E+02  0.19999E+02 -0.40447E+02  0.39295E+01 -0.47505E+01  0.98829E+01      982.00
  0.14240E+00  0.64154E+02    0.75000E-01  0.75000E-01 -0.15000E+00  0.00000E+00  0.00000E+00  0.00000E+00    0.20545E+02  0.20010E+02 -0.40556E+02  0.37627E+01 -0.46347E+01  0.10130E+02      982.00
  0.16611E+00  0.64385E+02    0.87500E-01  0.87500E-01 -0.17500E+00  0.00000E+00  0.00000E+00  0.00000E+00    0.20617E+02  0.20046E+02 -0.40663E+02  0.36022E+01 -0.45164E+01  0.10403E+02      982.00
  0.18979E+00  0.64634E+02    0.10000E+00  0.10000E+00 -0.20000E+00  0.00000E+00  0.00000E+00  0.00000E+00    0.20672E+02  0.20104E+02 -0.40777E+02  0.34572E+01 -0.44059E+01  0.10677E+02      982.00
  0.21345E+00  0.64900E+02    0.11250E+00  0.11250E+00 -0.22500E+00  0.00000E+00  0.00000E+00  0.00000E+00    0.20722E+02  0.20173E+02 -0.40895E+02  0.33247E+01 -0.43075E+01  0.10956E+02      982.00
  0.23708E+00  0.65177E+02    0.12500E+00  0.12500E+00 -0.25000E+00  0.00000E+00  0.00000E+00  0.00000E+00    0.20764E+02  0.20246E+02 -0.41010E+02  0.32038E+01 -0.42255E+01  0.11246E+02      982.00
  0.26067E+00  0.65466E+02    0.13750E+00  0.13750E+00 -0.27500E+00  0.00000E+00  0.00000E+00  0.00000E+00    0.20803E+02  0.20330E+02 -0.41133E+02  0.31003E+01 -0.41545E+01  0.11521E+02      982.00
  0.28423E+00  0.65755E+02    0.15000E+00  0.15000E+00 -0.30000E+00  0.00000E+00  0.00000E+00  0.00000E+00    0.20838E+02  0.20415E+02 -0.41253E+02  0.30114E+01 -0.40983E+01  0.11789E+02      982.00
  0.30776E+00  0.66043E+02    0.16250E+00  0.16250E+00 -0.32500E+00  0.00000E+00  0.00000E+00  0.00000E+00    0.20868E+02  0.20501E+02 -0.41370E+02  0.29373E+01 -0.40563E+01  0.12050E+02      982.00
  0.33125E+00  0.66326E+02    0.17500E+00  0.17500E+00 -0.35000E+00  0.00000E+00  0.00000E+00  0.00000E+00    0.20894E+02  0.20587E+02 -0.41481E+02  0.28776E+01 -0.40279E+01  0.12302E+02      982.00
  0.35470E+00  0.66599E+02    0.18750E+00  0.18750E+00 -0.37500E+00  0.00000E+00  0.00000E+00  0.00000E+00    0.20913E+02  0.20672E+02 -0.41585E+02  0.28315E+01 -0.40125E+01  0.12545E+02      982.00
  0.37812E+00  0.66851E+02    0.20000E+00  0.20000E+00 -0.40000E+00  0.00000E+00  0.00000E+00  0.00000E+00    0.20932E+02  0.20748E+02 -0.41680E+02  0.28051E+01 -0.40085E+01  0.12761E+02      982.00
  0.40150E+00  0.67099E+02    0.21250E+00  0.21250E+00 -0.42500E+00  0.00000E+00  0.00000E+00  0.00000E+00    0.20939E+02  0.20823E+02 -0.41762E+02  0.27837E+01 -0.40179E+01  0.12993E+02      982.00
  0.42484E+00  0.67331E+02    0.22500E+00  0.22500E+00 -0.45000E+00  0.00000E+00  0.00000E+00  0.00000E+00    0.20937E+02  0.20894E+02 -0.41831E+02  0.27737E+01 -0.40376E+01  0.13220E+02      982.00
  0.44814E+00  0.67552E+02    0.23750E+00  0.23750E+00 -0.47500E+00  0.00000E+00  0.00000E+00  0.00000E+00    0.20921E+02  0.20969E+02 -0.41889E+02  0.27654E+01 -0.40651E+01  0.13449E+02      982.00
  0.47139E+00  0.67743E+02    0.25000E+00  0.25000E+00 -0.50000E+00  0.00000E+00  0.00000E+00  0.00000E+00    0.20903E+02  0.21027E+02 -0.41930E+02  0.27785E+01 -0.41030E+01  0.13658E+02      982.00
  0.49460E+00  0.67929E+02    0.26250E+00  0.26250E+00 -0.52500E+00  0.00000E+00  0.00000E+00  0.00000E+00    0.20873E+02  0.21086E+02 -0.41960E+02  0.27921E+01 -0.41477E+01  0.13880E+02      982.00
  0.51776E+00  0.68086E+02    0.27500E+00  0.27500E+00 -0.55000E+00  0.00000E+00  0.00000E+00  0.00000E+00    0.20839E+02  0.21129E+02 -0.41968E+02  0.28205E+01 -0.42015E+01  0.14093E+02      982.00
  0.54088E+00  0.68233E+02    0.28750E+00  0.28750E+00 -0.57500E+00  0.00000E+00  0.00000E+00  0.00000E+00    0.20793E+02  0.21170E+02 -0.41963E+02  0.28518E+01 -0.42617E+01  0.14314E+02      982.00
  0.56394E+00  0.68363E+02    0.30000E+00  0.30000E+00 -0.60000E+00  0.00000E+00  0.00000E+00  0.00000E+00    0.20736E+02  0.21204E+02 -0.41941E+02  0.28889E+01 -0.43278E+01  0.14541E+02      982.00
  0.58695E+00  0.68477E+02    0.31250E+00  0.31250E+00 -0.62500E+00  0.00000E+00  0.00000E+00  0.00000E+00    0.20669E+02  0.21231E+02 -0.41900E+02  0.29307E+01 -0.43988E+01  0.14775E+02      982.00
  0.60989E+00  0.68596E+02    0.32500E+00  0.32500E+00 -0.65000E+00  0.00000E+00  0.00000E+00  0.00000E+00    0.20585E+02  0.21259E+02 -0.41845E+02  0.29762E+01 -0.44790E+01  0.15040E+02      982.00
  0.63277E+00  0.68680E+02    0.33750E+00  0.33750E+00 -0.67500E+00  0.00000E+00  0.00000E+00  0.00000E+00    0.20494E+02  0.21273E+02 -0.41767E+02  0.30236E+01 -0.45570E+01  0.15294E+02      982.00
  0.65558E+00  0.68750E+02    0.35000E+00  0.35000E+00 -0.70000E+00  0.00000E+00  0.00000E+00  0.00000E+00    0.20392E+02  0.21277E+02 -0.41670E+02  0.30716E+01 -0.46362E+01  0.15560E+02      982.00
  0.67830E+00  0.68805E+02    0.36250E+00  0.36250E+00 -0.72500E+00  0.00000E+00  0.00000E+00  0.00000E+00    0.20278E+02  0.21274E+02 -0.41552E+02  0.31181E+01 -0.47149E+01  0.15841E+02      982.00
  0.70095E+00  0.68847E+02    0.37500E+00  0.37500E+00 -0.75000E+00  0.00000E+00  0.00000E+00  0.00000E+00    0.20152E+02  0.21262E+02 -0.41414E+02  0.31615E+01 -0.47906E+01  0.16136E+02      982.00
  0.72351E+00  0.68873E+02    0.38750E+00  0.38750E+00 -0.77500E+00  0.00000E+00  0.00000E+00  0.00000E+00    0.20013E+02  0.21242E+02 -0.41255E+02  0.31968E+01 -0.48589E+01  0.16446E+02      982.00
  0.74597E+00  0.68888E+02    0.40000E+00  0.40000E+00 -0.80000E+00  0.00000E+00  0.00000E+00  0.00000E+00    0.19862E+02  0.21214E+02 -0.41076E+02  0.32262E+01 -0.49208E+01  0.16772E+02      982.00
  0.76833E+00  0.68888E+02    0.41250E+00  0.41250E+00 -0.82500E+00  0.00000E+00  0.00000E+00  0.00000E+00    0.19699E+02  0.21178E+02 -0.40877E+02  0.32449E+01 -0.49713E+01  0.17114E+02      982.00
  0.79058E+00  0.68876E+02    0.42500E+00  0.42500E+00 -0.85000E+00  0.00000E+00  0.00000E+00  0.00000E+00    0.19525E+02  0.21134E+02 -0.40659E+02  0.32500E+01 -0.50071E+01  0.17469E+02      982.00
  0.81272E+00  0.68843E+02    0.43750E+00  0.43750E+00 -0.87500E+00  0.00000E+00  0.00000E+00  0.00000E+00    0.19352E+02  0.21071E+02 -0.40423E+02  0.32503E+01 -0.50300E+01  0.17823E+02      982.00
  0.83474E+00  0.68810E+02    0.45000E+00  0.45000E+00 -0.90000E+00  0.00000E+00  0.00000E+00  0.00000E+00    0.19160E+02  0.21013E+02 -0.40173E+02  0.32229E+01 -0.50298E+01  0.18202E+02      982.00
  0.85663E+00  0.68766E+02    0.46250E+00  0.46250E+00 -0.92500E+00  0.00000E+00  0.00000E+00  0.00000E+00    0.18961E+02  0.20951E+02 -0.39912E+02  0.31748E+01 -0.50056E+01  0.18586E+02      982.00
  0.87840E+00  0.68713E+02    0.47500E+00  0.47500E+00 -0.95000E+00  0.00000E+00  0.00000E+00  0.00000E+00    0.18758E+02  0.20885E+02 -0.39643E+02  0.31043E+01 -0.49550E+01  0.18969E+02      982.00
  0.90003E+00  0.68651E+02    0.48750E+00  0.48750E+00 -0.97500E+00  0.00000E+00  0.00000E+00  0.00000E+00    0.18554E+02  0.20817E+02 -0.39371E+02  0.30103E+01 -0.48761E+01  0.19348E+02      982.00
  0.92154E+00  0.68553E+02    0.50000E+00  0.50000E+00 -0.10000E+01  0.00000E+00  0.00000E+00  0.00000E+00    0.18351E+02  0.20735E+02 -0.39087E+02  0.29066E+01 -0.47757E+01  0.19697E+02      982.00
