          Evm          Svm            E11          E22          E33          E23          E13          E12         SDEV11       SDEV22       SDEV33       SDEV23       SDEV13       SDEV12      TEMP
  0.00000E+00  0.65490E+02    0.00000E+00  0.00000E+00  0.00000E+00  0.00000E+00  0.00000E+00  0.00000E+00    0.21977E+02  0.20469E+02 -0.42446E+02  0.28126E+01  0.43552E+01 -0.71388E+01      982.00
  0.24305E-01  0.65215E+02    0.12500E-01  0.12500E-01 -0.25000E-01  0.00000E+00  0.00000E+00  0.00000E+00    0.21752E+02  0.20606E+02 -0.42358E+02  0.28274E+01  0.41799E+01 -0.67974E+01      982.00
  0.48662E-01  0.65020E+02    0.25000E-01  0.25000E-01 -0.50000E-01  0.00000E+00  0.00000E+00  0.00000E+00    0.21611E+02  0.20704E+02 -0.42315E+02  0.28926E+01  0.40399E+01 -0.64338E+01      982.00
  0.73067E-01  0.64925E+02    0.37500E-01  0.37500E-01 -0.75000E-01  0.00000E+00  0.00000E+00  0.00000E+00    0.21522E+02  0.20794E+02 -0.42316E+02  0.30198E+01  0.39494E+01 -0.61038E+01      982.00
  0.97508E-01  0.64917E+02    0.50000E-01  0.50000E-01 -0.10000E+00  0.00000E+00  0.00000E+00  0.00000E+00    0.21479E+02  0.20872E+02 -0.42351E+02  0.31758E+01  0.39061E+01 -0.58420E+01      982.00
  0.12197E+00  0.64973E+02    0.62500E-01  0.62500E-01 -0.12500E+00  0.00000E+00  0.00000E+00  0.00000E+00    0.21459E+02  0.20949E+02 -0.42409E+02  0.33352E+01  0.38918E+01 -0.56534E+01      982.00
  0.14645E+00  0.65078E+02    0.75000E-01  0.75000E-01 -0.15000E+00  0.00000E+00  0.00000E+00  0.00000E+00    0.21457E+02  0.21029E+02 -0.42486E+02  0.34779E+01  0.38948E+01 -0.55304E+01      982.00
  0.17093E+00  0.65218E+02    0.87500E-01  0.87500E-01 -0.17500E+00  0.00000E+00  0.00000E+00  0.00000E+00    0.21469E+02  0.21109E+02 -0.42578E+02  0.35966E+01  0.39094E+01 -0.54655E+01      982.00
  0.19541E+00  0.65392E+02    0.10000E+00  0.10000E+00 -0.20000E+00  0.00000E+00  0.00000E+00  0.00000E+00    0.21484E+02  0.21202E+02 -0.42686E+02  0.36948E+01  0.39292E+01 -0.54470E+01      982.00
  0.21989E+00  0.65588E+02    0.11250E+00  0.11250E+00 -0.22500E+00  0.00000E+00  0.00000E+00  0.00000E+00    0.21495E+02  0.21310E+02 -0.42805E+02  0.37750E+01  0.39516E+01 -0.54639E+01      982.00
  0.24437E+00  0.65796E+02    0.12500E+00  0.12500E+00 -0.25000E+00  0.00000E+00  0.00000E+00  0.00000E+00    0.21493E+02  0.21438E+02 -0.42931E+02  0.38389E+01  0.39703E+01 -0.55013E+01      982.00
  0.26883E+00  0.66038E+02    0.13750E+00  0.13750E+00 -0.27500E+00  0.00000E+00  0.00000E+00  0.00000E+00    0.21502E+02  0.21574E+02 -0.43076E+02  0.38880E+01  0.39958E+01 -0.55618E+01      982.00
  0.29329E+00  0.66263E+02    0.15000E+00  0.15000E+00 -0.30000E+00  0.00000E+00  0.00000E+00  0.00000E+00    0.21483E+02  0.21729E+02 -0.43211E+02  0.39271E+01  0.40131E+01 -0.56245E+01      982.00
  0.31775E+00  0.66507E+02    0.16250E+00  0.16250E+00 -0.32500E+00  0.00000E+00  0.00000E+00  0.00000E+00    0.21472E+02  0.21886E+02 -0.43358E+02  0.39557E+01  0.40375E+01 -0.56980E+01      982.00
  0.34220E+00  0.66733E+02    0.17500E+00  0.17500E+00 -0.35000E+00  0.00000E+00  0.00000E+00  0.00000E+00    0.21439E+02  0.22055E+02 -0.43494E+02  0.39774E+01  0.40567E+01 -0.57680E+01      982.00
  0.36664E+00  0.66949E+02    0.18750E+00  0.18750E+00 -0.37500E+00  0.00000E+00  0.00000E+00  0.00000E+00    0.21393E+02  0.22231E+02 -0.43624E+02  0.39933E+01  0.40750E+01 -0.58354E+01      982.00
  0.39107E+00  0.67151E+02    0.20000E+00  0.20000E+00 -0.40000E+00  0.00000E+00  0.00000E+00  0.00000E+00    0.21333E+02  0.22411E+02 -0.43745E+02  0.40045E+01  0.40925E+01 -0.58985E+01      982.00
  0.41550E+00  0.67338E+02    0.21250E+00  0.21250E+00 -0.42500E+00  0.00000E+00  0.00000E+00  0.00000E+00    0.21262E+02  0.22595E+02 -0.43857E+02  0.40119E+01  0.41092E+01 -0.59562E+01      982.00
  0.43993E+00  0.67509E+02    0.22500E+00  0.22500E+00 -0.45000E+00  0.00000E+00  0.00000E+00  0.00000E+00    0.21177E+02  0.22782E+02 -0.43959E+02  0.40163E+01  0.41253E+01 -0.60080E+01      982.00
  0.46434E+00  0.67663E+02    0.23750E+00  0.23750E+00 -0.47500E+00  0.00000E+00  0.00000E+00  0.00000E+00    0.21076E+02  0.22974E+02 -0.44050E+02  0.40201E+01  0.41344E+01 -0.60502E+01      982.00
  0.48876E+00  0.67804E+02    0.25000E+00  0.25000E+00 -0.50000E+00  0.00000E+00  0.00000E+00  0.00000E+00    0.20970E+02  0.23163E+02 -0.44133E+02  0.40204E+01  0.41493E+01 -0.60901E+01      982.00
  0.51317E+00  0.67930E+02    0.26250E+00  0.26250E+00 -0.52500E+00  0.00000E+00  0.00000E+00  0.00000E+00    0.20853E+02  0.23352E+02 -0.44205E+02  0.40188E+01  0.41636E+01 -0.61239E+01      982.00
  0.53757E+00  0.68042E+02    0.27500E+00  0.27500E+00 -0.55000E+00  0.00000E+00  0.00000E+00  0.00000E+00    0.20728E+02  0.23541E+02 -0.44269E+02  0.40156E+01  0.41772E+01 -0.61519E+01      982.00
  0.56197E+00  0.68141E+02    0.28750E+00  0.28750E+00 -0.57500E+00  0.00000E+00  0.00000E+00  0.00000E+00    0.20594E+02  0.23730E+02 -0.44324E+02  0.40112E+01  0.41900E+01 -0.61743E+01      982.00
  0.58636E+00  0.68228E+02    0.30000E+00  0.30000E+00 -0.60000E+00  0.00000E+00  0.00000E+00  0.00000E+00    0.20454E+02  0.23918E+02 -0.44372E+02  0.40056E+01  0.42020E+01 -0.61913E+01      982.00
  0.61075E+00  0.68304E+02    0.31250E+00  0.31250E+00 -0.62500E+00  0.00000E+00  0.00000E+00  0.00000E+00    0.20307E+02  0.24105E+02 -0.44412E+02  0.39991E+01  0.42132E+01 -0.62033E+01      982.00
  0.63513E+00  0.68371E+02    0.32500E+00  0.32500E+00 -0.65000E+00  0.00000E+00  0.00000E+00  0.00000E+00    0.20156E+02  0.24290E+02 -0.44446E+02  0.39915E+01  0.42230E+01 -0.62104E+01      982.00
  0.65951E+00  0.68429E+02    0.33750E+00  0.33750E+00 -0.67500E+00  0.00000E+00  0.00000E+00  0.00000E+00    0.19999E+02  0.24474E+02 -0.44474E+02  0.39834E+01  0.42324E+01 -0.62131E+01      982.00
  0.68388E+00  0.68479E+02    0.35000E+00  0.35000E+00 -0.70000E+00  0.00000E+00  0.00000E+00  0.00000E+00    0.19840E+02  0.24657E+02 -0.44496E+02  0.39746E+01  0.42410E+01 -0.62116E+01      982.00
  0.70825E+00  0.68522E+02    0.36250E+00  0.36250E+00 -0.72500E+00  0.00000E+00  0.00000E+00  0.00000E+00    0.19677E+02  0.24837E+02 -0.44514E+02  0.39653E+01  0.42488E+01 -0.62060E+01      982.00
  0.73261E+00  0.68558E+02    0.37500E+00  0.37500E+00 -0.75000E+00  0.00000E+00  0.00000E+00  0.00000E+00    0.19513E+02  0.25014E+02 -0.44528E+02  0.39554E+01  0.42558E+01 -0.61967E+01      982.00
  0.75696E+00  0.68590E+02    0.38750E+00  0.38750E+00 -0.77500E+00  0.00000E+00  0.00000E+00  0.00000E+00    0.19348E+02  0.25190E+02 -0.44537E+02  0.39452E+01  0.42620E+01 -0.61837E+01      982.00
  0.78131E+00  0.68616E+02    0.40000E+00  0.40000E+00 -0.80000E+00  0.00000E+00  0.00000E+00  0.00000E+00    0.19182E+02  0.25362E+02 -0.44544E+02  0.39346E+01  0.42675E+01 -0.61673E+01      982.00
  0.80566E+00  0.68641E+02    0.41250E+00  0.41250E+00 -0.82500E+00  0.00000E+00  0.00000E+00  0.00000E+00    0.19018E+02  0.25532E+02 -0.44550E+02  0.39317E+01  0.42633E+01 -0.61465E+01      982.00
  0.83000E+00  0.68659E+02    0.42500E+00  0.42500E+00 -0.85000E+00  0.00000E+00  0.00000E+00  0.00000E+00    0.18853E+02  0.25698E+02 -0.44551E+02  0.39205E+01  0.42676E+01 -0.61243E+01      982.00
  0.85433E+00  0.68674E+02    0.43750E+00  0.43750E+00 -0.87500E+00  0.00000E+00  0.00000E+00  0.00000E+00    0.18690E+02  0.25859E+02 -0.44549E+02  0.39087E+01  0.42719E+01 -0.60994E+01      982.00
  0.87866E+00  0.68686E+02    0.45000E+00  0.45000E+00 -0.90000E+00  0.00000E+00  0.00000E+00  0.00000E+00    0.18528E+02  0.26017E+02 -0.44545E+02  0.38968E+01  0.42759E+01 -0.60719E+01      982.00
  0.90298E+00  0.68639E+02    0.46250E+00  0.46250E+00 -0.92500E+00  0.00000E+00  0.00000E+00  0.00000E+00    0.18369E+02  0.26139E+02 -0.44508E+02  0.38697E+01  0.42658E+01 -0.60338E+01      982.00
  0.92729E+00  0.68593E+02    0.47500E+00  0.47500E+00 -0.95000E+00  0.00000E+00  0.00000E+00  0.00000E+00    0.18213E+02  0.26259E+02 -0.44473E+02  0.38448E+01  0.42551E+01 -0.59940E+01      982.00
  0.95161E+00  0.68550E+02    0.48750E+00  0.48750E+00 -0.97500E+00  0.00000E+00  0.00000E+00  0.00000E+00    0.18062E+02  0.26376E+02 -0.44437E+02  0.38206E+01  0.42446E+01 -0.59531E+01      982.00
  0.97592E+00  0.68507E+02    0.50000E+00  0.50000E+00 -0.10000E+01  0.00000E+00  0.00000E+00  0.00000E+00    0.17914E+02  0.26490E+02 -0.44403E+02  0.37970E+01  0.42344E+01 -0.59113E+01      982.00
