          Evm          Svm            E11          E22          E33          E23          E13          E12         SDEV11       SDEV22       SDEV33       SDEV23       SDEV13       SDEV12      TEMP
  0.00000E+00  0.56690E+02    0.00000E+00  0.00000E+00  0.00000E+00  0.00000E+00  0.00000E+00  0.00000E+00    0.16695E+02  0.16181E+02 -0.32876E+02 -0.16878E+01  0.39675E+01  0.15556E+02      982.00
  0.21747E-01  0.56632E+02    0.12500E-01  0.12500E-01 -0.25000E-01  0.00000E+00  0.00000E+00  0.00000E+00    0.16730E+02  0.16167E+02 -0.32897E+02 -0.19379E+01  0.37772E+01  0.15469E+02      982.00
  0.43531E-01  0.56719E+02    0.25000E-01  0.25000E-01 -0.50000E-01  0.00000E+00  0.00000E+00  0.00000E+00    0.16785E+02  0.16192E+02 -0.32977E+02 -0.21232E+01  0.36136E+01  0.15464E+02      982.00
  0.65333E-01  0.56915E+02    0.37500E-01  0.37500E-01 -0.75000E-01  0.00000E+00  0.00000E+00  0.00000E+00    0.16852E+02  0.16247E+02 -0.33099E+02 -0.22678E+01  0.34538E+01  0.15523E+02      982.00
  0.87141E-01  0.57190E+02    0.50000E-01  0.50000E-01 -0.10000E+00  0.00000E+00  0.00000E+00  0.00000E+00    0.16930E+02  0.16324E+02 -0.33254E+02 -0.23804E+01  0.32967E+01  0.15629E+02      982.00
  0.10895E+00  0.57540E+02    0.62500E-01  0.62500E-01 -0.12500E+00  0.00000E+00  0.00000E+00  0.00000E+00    0.17016E+02  0.16421E+02 -0.33437E+02 -0.24712E+01  0.31487E+01  0.15780E+02      982.00
  0.13074E+00  0.57937E+02    0.75000E-01  0.75000E-01 -0.15000E+00  0.00000E+00  0.00000E+00  0.00000E+00    0.17110E+02  0.16529E+02 -0.33639E+02 -0.25372E+01  0.30164E+01  0.15956E+02      982.00
  0.15251E+00  0.58365E+02    0.87500E-01  0.87500E-01 -0.17500E+00  0.00000E+00  0.00000E+00  0.00000E+00    0.17207E+02  0.16649E+02 -0.33856E+02 -0.25904E+01  0.28915E+01  0.16145E+02      982.00
  0.17426E+00  0.58812E+02    0.10000E+00  0.10000E+00 -0.20000E+00  0.00000E+00  0.00000E+00  0.00000E+00    0.17306E+02  0.16774E+02 -0.34081E+02 -0.26261E+01  0.27850E+01  0.16344E+02      982.00
  0.19599E+00  0.59257E+02    0.11250E+00  0.11250E+00 -0.22500E+00  0.00000E+00  0.00000E+00  0.00000E+00    0.17403E+02  0.16904E+02 -0.34307E+02 -0.26537E+01  0.26825E+01  0.16536E+02      982.00
  0.21770E+00  0.59709E+02    0.12500E+00  0.12500E+00 -0.25000E+00  0.00000E+00  0.00000E+00  0.00000E+00    0.17502E+02  0.17035E+02 -0.34536E+02 -0.26701E+01  0.26011E+01  0.16730E+02      982.00
  0.23939E+00  0.60151E+02    0.13750E+00  0.13750E+00 -0.27500E+00  0.00000E+00  0.00000E+00  0.00000E+00    0.17598E+02  0.17164E+02 -0.34762E+02 -0.26797E+01  0.25307E+01  0.16914E+02      982.00
  0.26107E+00  0.60562E+02    0.15000E+00  0.15000E+00 -0.30000E+00  0.00000E+00  0.00000E+00  0.00000E+00    0.17686E+02  0.17292E+02 -0.34978E+02 -0.26842E+01  0.24596E+01  0.17080E+02      982.00
  0.28272E+00  0.60967E+02    0.16250E+00  0.16250E+00 -0.32500E+00  0.00000E+00  0.00000E+00  0.00000E+00    0.17775E+02  0.17416E+02 -0.35191E+02 -0.26838E+01  0.24074E+01  0.17237E+02      982.00
  0.30437E+00  0.61347E+02    0.17500E+00  0.17500E+00 -0.35000E+00  0.00000E+00  0.00000E+00  0.00000E+00    0.17861E+02  0.17535E+02 -0.35396E+02 -0.26792E+01  0.23622E+01  0.17379E+02      982.00
  0.32601E+00  0.61697E+02    0.18750E+00  0.18750E+00 -0.37500E+00  0.00000E+00  0.00000E+00  0.00000E+00    0.17937E+02  0.17650E+02 -0.35587E+02 -0.26704E+01  0.23132E+01  0.17507E+02      982.00
  0.34764E+00  0.62027E+02    0.20000E+00  0.20000E+00 -0.40000E+00  0.00000E+00  0.00000E+00  0.00000E+00    0.18014E+02  0.17759E+02 -0.35772E+02 -0.26600E+01  0.22787E+01  0.17619E+02      982.00
  0.36926E+00  0.62337E+02    0.21250E+00  0.21250E+00 -0.42500E+00  0.00000E+00  0.00000E+00  0.00000E+00    0.18083E+02  0.17864E+02 -0.35947E+02 -0.26439E+01  0.22384E+01  0.17725E+02      982.00
  0.39089E+00  0.62619E+02    0.22500E+00  0.22500E+00 -0.45000E+00  0.00000E+00  0.00000E+00  0.00000E+00    0.18152E+02  0.17960E+02 -0.36112E+02 -0.26288E+01  0.22108E+01  0.17810E+02      982.00
  0.41251E+00  0.62876E+02    0.23750E+00  0.23750E+00 -0.47500E+00  0.00000E+00  0.00000E+00  0.00000E+00    0.18216E+02  0.18049E+02 -0.36265E+02 -0.26123E+01  0.21852E+01  0.17883E+02      982.00
  0.43414E+00  0.63113E+02    0.25000E+00  0.25000E+00 -0.50000E+00  0.00000E+00  0.00000E+00  0.00000E+00    0.18278E+02  0.18132E+02 -0.36410E+02 -0.25943E+01  0.21626E+01  0.17946E+02      982.00
  0.45578E+00  0.63332E+02    0.26250E+00  0.26250E+00 -0.52500E+00  0.00000E+00  0.00000E+00  0.00000E+00    0.18337E+02  0.18209E+02 -0.36546E+02 -0.25754E+01  0.21413E+01  0.18001E+02      982.00
  0.47742E+00  0.63544E+02    0.27500E+00  0.27500E+00 -0.55000E+00  0.00000E+00  0.00000E+00  0.00000E+00    0.18393E+02  0.18285E+02 -0.36678E+02 -0.25485E+01  0.21128E+01  0.18057E+02      982.00
  0.49906E+00  0.63727E+02    0.28750E+00  0.28750E+00 -0.57500E+00  0.00000E+00  0.00000E+00  0.00000E+00    0.18446E+02  0.18350E+02 -0.36796E+02 -0.25274E+01  0.20927E+01  0.18096E+02      982.00
  0.52072E+00  0.63894E+02    0.30000E+00  0.30000E+00 -0.60000E+00  0.00000E+00  0.00000E+00  0.00000E+00    0.18497E+02  0.18410E+02 -0.36907E+02 -0.25070E+01  0.20746E+01  0.18129E+02      982.00
  0.54238E+00  0.64048E+02    0.31250E+00  0.31250E+00 -0.62500E+00  0.00000E+00  0.00000E+00  0.00000E+00    0.18546E+02  0.18464E+02 -0.37010E+02 -0.24865E+01  0.20574E+01  0.18157E+02      982.00
  0.56404E+00  0.64173E+02    0.32500E+00  0.32500E+00 -0.65000E+00  0.00000E+00  0.00000E+00  0.00000E+00    0.18586E+02  0.18508E+02 -0.37094E+02 -0.24709E+01  0.20446E+01  0.18178E+02      982.00
  0.58572E+00  0.64306E+02    0.33750E+00  0.33750E+00 -0.67500E+00  0.00000E+00  0.00000E+00  0.00000E+00    0.18632E+02  0.18554E+02 -0.37186E+02 -0.24513E+01  0.20290E+01  0.18199E+02      982.00
  0.60741E+00  0.64428E+02    0.35000E+00  0.35000E+00 -0.70000E+00  0.00000E+00  0.00000E+00  0.00000E+00    0.18676E+02  0.18596E+02 -0.37271E+02 -0.24318E+01  0.20133E+01  0.18216E+02      982.00
  0.62910E+00  0.64541E+02    0.36250E+00  0.36250E+00 -0.72500E+00  0.00000E+00  0.00000E+00  0.00000E+00    0.18718E+02  0.18633E+02 -0.37351E+02 -0.24127E+01  0.19981E+01  0.18231E+02      982.00
  0.65080E+00  0.64644E+02    0.37500E+00  0.37500E+00 -0.75000E+00  0.00000E+00  0.00000E+00  0.00000E+00    0.18758E+02  0.18667E+02 -0.37425E+02 -0.23942E+01  0.19834E+01  0.18243E+02      982.00
  0.67251E+00  0.64741E+02    0.38750E+00  0.38750E+00 -0.77500E+00  0.00000E+00  0.00000E+00  0.00000E+00    0.18797E+02  0.18698E+02 -0.37495E+02 -0.23764E+01  0.19691E+01  0.18253E+02      982.00
  0.69423E+00  0.64829E+02    0.40000E+00  0.40000E+00 -0.80000E+00  0.00000E+00  0.00000E+00  0.00000E+00    0.18835E+02  0.18725E+02 -0.37560E+02 -0.23593E+01  0.19554E+01  0.18262E+02      982.00
  0.71596E+00  0.64912E+02    0.41250E+00  0.41250E+00 -0.82500E+00  0.00000E+00  0.00000E+00  0.00000E+00    0.18872E+02  0.18749E+02 -0.37621E+02 -0.23429E+01  0.19421E+01  0.18269E+02      982.00
  0.73769E+00  0.64988E+02    0.42500E+00  0.42500E+00 -0.85000E+00  0.00000E+00  0.00000E+00  0.00000E+00    0.18908E+02  0.18770E+02 -0.37678E+02 -0.23273E+01  0.19293E+01  0.18275E+02      982.00
  0.75943E+00  0.65060E+02    0.43750E+00  0.43750E+00 -0.87500E+00  0.00000E+00  0.00000E+00  0.00000E+00    0.18942E+02  0.18789E+02 -0.37731E+02 -0.23125E+01  0.19169E+01  0.18280E+02      982.00
  0.78118E+00  0.65126E+02    0.45000E+00  0.45000E+00 -0.90000E+00  0.00000E+00  0.00000E+00  0.00000E+00    0.18976E+02  0.18805E+02 -0.37781E+02 -0.22985E+01  0.19051E+01  0.18284E+02      982.00
  0.80293E+00  0.65187E+02    0.46250E+00  0.46250E+00 -0.92500E+00  0.00000E+00  0.00000E+00  0.00000E+00    0.19010E+02  0.18819E+02 -0.37828E+02 -0.22853E+01  0.18937E+01  0.18287E+02      982.00
  0.82470E+00  0.65245E+02    0.47500E+00  0.47500E+00 -0.95000E+00  0.00000E+00  0.00000E+00  0.00000E+00    0.19042E+02  0.18830E+02 -0.37872E+02 -0.22728E+01  0.18827E+01  0.18290E+02      982.00
  0.84646E+00  0.65299E+02    0.48750E+00  0.48750E+00 -0.97500E+00  0.00000E+00  0.00000E+00  0.00000E+00    0.19074E+02  0.18839E+02 -0.37913E+02 -0.22611E+01  0.18722E+01  0.18292E+02      982.00
  0.86824E+00  0.65305E+02    0.50000E+00  0.50000E+00 -0.10000E+01  0.00000E+00  0.00000E+00  0.00000E+00    0.19090E+02  0.18834E+02 -0.37924E+02 -0.22417E+01  0.18600E+01  0.18288E+02      982.00
