          Evm          Svm            E11          E22          E33          E23          E13          E12         SDEV11       SDEV22       SDEV33       SDEV23       SDEV13       SDEV12      TEMP
  0.00000E+00  0.60035E+02    0.00000E+00  0.00000E+00  0.00000E+00  0.00000E+00  0.00000E+00  0.00000E+00    0.12382E+02  0.25646E+02 -0.38028E+02  0.39133E+01  0.39234E+00 -0.75731E+01      982.00
  0.23754E-01  0.60300E+02    0.12500E-01  0.12500E-01 -0.25000E-01  0.00000E+00  0.00000E+00  0.00000E+00    0.12614E+02  0.25576E+02 -0.38190E+02  0.39808E+01  0.60935E+00 -0.77405E+01      982.00
  0.47504E-01  0.60628E+02    0.25000E-01  0.25000E-01 -0.50000E-01  0.00000E+00  0.00000E+00  0.00000E+00    0.12930E+02  0.25479E+02 -0.38409E+02  0.40750E+01  0.83214E+00 -0.78834E+01      982.00
  0.71261E-01  0.60858E+02    0.37500E-01  0.37500E-01 -0.75000E-01  0.00000E+00  0.00000E+00  0.00000E+00    0.13362E+02  0.25240E+02 -0.38602E+02  0.41406E+01  0.11244E+01 -0.79555E+01      982.00
  0.95047E-01  0.60940E+02    0.50000E-01  0.50000E-01 -0.10000E+00  0.00000E+00  0.00000E+00  0.00000E+00    0.13808E+02  0.24906E+02 -0.38714E+02  0.42292E+01  0.13794E+01 -0.79515E+01      982.00
  0.11887E+00  0.61054E+02    0.62500E-01  0.62500E-01 -0.12500E+00  0.00000E+00  0.00000E+00  0.00000E+00    0.14147E+02  0.24675E+02 -0.38822E+02  0.44058E+01  0.14757E+01 -0.79285E+01      982.00
  0.14272E+00  0.61277E+02    0.75000E-01  0.75000E-01 -0.15000E+00  0.00000E+00  0.00000E+00  0.00000E+00    0.14368E+02  0.24604E+02 -0.38972E+02  0.46305E+01  0.14412E+01 -0.79240E+01      982.00
  0.16657E+00  0.61531E+02    0.87500E-01  0.87500E-01 -0.17500E+00  0.00000E+00  0.00000E+00  0.00000E+00    0.14479E+02  0.24652E+02 -0.39131E+02  0.48353E+01  0.13284E+01 -0.79091E+01      982.00
  0.19041E+00  0.61835E+02    0.10000E+00  0.10000E+00 -0.20000E+00  0.00000E+00  0.00000E+00  0.00000E+00    0.14564E+02  0.24751E+02 -0.39315E+02  0.50120E+01  0.12295E+01 -0.79180E+01      982.00
  0.21426E+00  0.62176E+02    0.11250E+00  0.11250E+00 -0.22500E+00  0.00000E+00  0.00000E+00  0.00000E+00    0.14616E+02  0.24901E+02 -0.39517E+02  0.51527E+01  0.11431E+01 -0.79431E+01      982.00
  0.23809E+00  0.62538E+02    0.12500E+00  0.12500E+00 -0.25000E+00  0.00000E+00  0.00000E+00  0.00000E+00    0.14649E+02  0.25082E+02 -0.39732E+02  0.52594E+01  0.10768E+01 -0.79804E+01      982.00
  0.26191E+00  0.62912E+02    0.13750E+00  0.13750E+00 -0.27500E+00  0.00000E+00  0.00000E+00  0.00000E+00    0.14666E+02  0.25287E+02 -0.39953E+02  0.53368E+01  0.10259E+01 -0.80242E+01      982.00
  0.28573E+00  0.63289E+02    0.15000E+00  0.15000E+00 -0.30000E+00  0.00000E+00  0.00000E+00  0.00000E+00    0.14686E+02  0.25493E+02 -0.40179E+02  0.53901E+01  0.99974E+00 -0.80729E+01      982.00
  0.30954E+00  0.63660E+02    0.16250E+00  0.16250E+00 -0.32500E+00  0.00000E+00  0.00000E+00  0.00000E+00    0.14698E+02  0.25703E+02 -0.40402E+02  0.54253E+01  0.98564E+00 -0.81214E+01      982.00
  0.33334E+00  0.64023E+02    0.17500E+00  0.17500E+00 -0.35000E+00  0.00000E+00  0.00000E+00  0.00000E+00    0.14721E+02  0.25902E+02 -0.40623E+02  0.54451E+01  0.99189E+00 -0.81685E+01      982.00
  0.35713E+00  0.64370E+02    0.18750E+00  0.18750E+00 -0.37500E+00  0.00000E+00  0.00000E+00  0.00000E+00    0.14740E+02  0.26096E+02 -0.40836E+02  0.54553E+01  0.10063E+01 -0.82116E+01      982.00
  0.38092E+00  0.64684E+02    0.20000E+00  0.20000E+00 -0.40000E+00  0.00000E+00  0.00000E+00  0.00000E+00    0.14765E+02  0.26267E+02 -0.41032E+02  0.54552E+01  0.10315E+01 -0.82475E+01      982.00
  0.40471E+00  0.65022E+02    0.21250E+00  0.21250E+00 -0.42500E+00  0.00000E+00  0.00000E+00  0.00000E+00    0.14786E+02  0.26456E+02 -0.41242E+02  0.54554E+01  0.10707E+01 -0.82853E+01      982.00
  0.42849E+00  0.65308E+02    0.22500E+00  0.22500E+00 -0.45000E+00  0.00000E+00  0.00000E+00  0.00000E+00    0.14830E+02  0.26598E+02 -0.41428E+02  0.54422E+01  0.11173E+01 -0.83085E+01      982.00
  0.45228E+00  0.65613E+02    0.23750E+00  0.23750E+00 -0.47500E+00  0.00000E+00  0.00000E+00  0.00000E+00    0.14881E+02  0.26747E+02 -0.41628E+02  0.54229E+01  0.11802E+01 -0.83273E+01      982.00
  0.47607E+00  0.65850E+02    0.25000E+00  0.25000E+00 -0.50000E+00  0.00000E+00  0.00000E+00  0.00000E+00    0.14937E+02  0.26852E+02 -0.41789E+02  0.54013E+01  0.12387E+01 -0.83359E+01      982.00
  0.49987E+00  0.66041E+02    0.26250E+00  0.26250E+00 -0.52500E+00  0.00000E+00  0.00000E+00  0.00000E+00    0.14988E+02  0.26931E+02 -0.41919E+02  0.53857E+01  0.12844E+01 -0.83419E+01      982.00
  0.52367E+00  0.66238E+02    0.27500E+00  0.27500E+00 -0.55000E+00  0.00000E+00  0.00000E+00  0.00000E+00    0.15037E+02  0.27017E+02 -0.42054E+02  0.53670E+01  0.13311E+01 -0.83436E+01      982.00
  0.54748E+00  0.66434E+02    0.28750E+00  0.28750E+00 -0.57500E+00  0.00000E+00  0.00000E+00  0.00000E+00    0.15085E+02  0.27105E+02 -0.42190E+02  0.53468E+01  0.13807E+01 -0.83397E+01      982.00
  0.57130E+00  0.66609E+02    0.30000E+00  0.30000E+00 -0.60000E+00  0.00000E+00  0.00000E+00  0.00000E+00    0.15136E+02  0.27178E+02 -0.42314E+02  0.53263E+01  0.14378E+01 -0.83317E+01      982.00
  0.59512E+00  0.66768E+02    0.31250E+00  0.31250E+00 -0.62500E+00  0.00000E+00  0.00000E+00  0.00000E+00    0.15188E+02  0.27240E+02 -0.42429E+02  0.53032E+01  0.14918E+01 -0.83178E+01      982.00
  0.61895E+00  0.66914E+02    0.32500E+00  0.32500E+00 -0.65000E+00  0.00000E+00  0.00000E+00  0.00000E+00    0.15240E+02  0.27295E+02 -0.42535E+02  0.52829E+01  0.15496E+01 -0.83023E+01      982.00
  0.64279E+00  0.67047E+02    0.33750E+00  0.33750E+00 -0.67500E+00  0.00000E+00  0.00000E+00  0.00000E+00    0.15291E+02  0.27342E+02 -0.42634E+02  0.52627E+01  0.16074E+01 -0.82836E+01      982.00
  0.66663E+00  0.67178E+02    0.35000E+00  0.35000E+00 -0.70000E+00  0.00000E+00  0.00000E+00  0.00000E+00    0.15336E+02  0.27395E+02 -0.42731E+02  0.52453E+01  0.16593E+01 -0.82595E+01      982.00
  0.69049E+00  0.67286E+02    0.36250E+00  0.36250E+00 -0.72500E+00  0.00000E+00  0.00000E+00  0.00000E+00    0.15385E+02  0.27429E+02 -0.42814E+02  0.52261E+01  0.17154E+01 -0.82355E+01      982.00
  0.71435E+00  0.67384E+02    0.37500E+00  0.37500E+00 -0.75000E+00  0.00000E+00  0.00000E+00  0.00000E+00    0.15434E+02  0.27457E+02 -0.42891E+02  0.52072E+01  0.17713E+01 -0.82094E+01      982.00
  0.73822E+00  0.67473E+02    0.38750E+00  0.38750E+00 -0.77500E+00  0.00000E+00  0.00000E+00  0.00000E+00    0.15482E+02  0.27481E+02 -0.42962E+02  0.51887E+01  0.18266E+01 -0.81815E+01      982.00
  0.76209E+00  0.67553E+02    0.40000E+00  0.40000E+00 -0.80000E+00  0.00000E+00  0.00000E+00  0.00000E+00    0.15528E+02  0.27500E+02 -0.43028E+02  0.51706E+01  0.18814E+01 -0.81520E+01      982.00
  0.78598E+00  0.67625E+02    0.41250E+00  0.41250E+00 -0.82500E+00  0.00000E+00  0.00000E+00  0.00000E+00    0.15573E+02  0.27515E+02 -0.43089E+02  0.51529E+01  0.19355E+01 -0.81212E+01      982.00
  0.80987E+00  0.67690E+02    0.42500E+00  0.42500E+00 -0.85000E+00  0.00000E+00  0.00000E+00  0.00000E+00    0.15617E+02  0.27527E+02 -0.43144E+02  0.51357E+01  0.19889E+01 -0.80893E+01      982.00
  0.83378E+00  0.67751E+02    0.43750E+00  0.43750E+00 -0.87500E+00  0.00000E+00  0.00000E+00  0.00000E+00    0.15653E+02  0.27543E+02 -0.43196E+02  0.51220E+01  0.20363E+01 -0.80575E+01      982.00
  0.85769E+00  0.67738E+02    0.45000E+00  0.45000E+00 -0.90000E+00  0.00000E+00  0.00000E+00  0.00000E+00    0.15694E+02  0.27514E+02 -0.43208E+02  0.50858E+01  0.20786E+01 -0.80075E+01      982.00
  0.88161E+00  0.67724E+02    0.46250E+00  0.46250E+00 -0.92500E+00  0.00000E+00  0.00000E+00  0.00000E+00    0.15733E+02  0.27487E+02 -0.43220E+02  0.50509E+01  0.21202E+01 -0.79593E+01      982.00
  0.90554E+00  0.67710E+02    0.47500E+00  0.47500E+00 -0.95000E+00  0.00000E+00  0.00000E+00  0.00000E+00    0.15770E+02  0.27460E+02 -0.43230E+02  0.50171E+01  0.21611E+01 -0.79119E+01      982.00
  0.92948E+00  0.67695E+02    0.48750E+00  0.48750E+00 -0.97500E+00  0.00000E+00  0.00000E+00  0.00000E+00    0.15806E+02  0.27433E+02 -0.43239E+02  0.49843E+01  0.22013E+01 -0.78653E+01      982.00
  0.95343E+00  0.67680E+02    0.50000E+00  0.50000E+00 -0.10000E+01  0.00000E+00  0.00000E+00  0.00000E+00    0.15838E+02  0.27408E+02 -0.43246E+02  0.49546E+01  0.22402E+01 -0.78202E+01      982.00
