          Evm          Svm            E11          E22          E33          E23          E13          E12         SDEV11       SDEV22       SDEV33       SDEV23       SDEV13       SDEV12      TEMP
  0.00000E+00  0.59552E+02    0.00000E+00  0.00000E+00  0.00000E+00  0.00000E+00  0.00000E+00  0.00000E+00    0.27134E+02  0.98200E+01 -0.36954E+02  0.23217E+01  0.11744E+01 -0.87318E+01      982.00
  0.23270E-01  0.59840E+02    0.12500E-01  0.12500E-01 -0.25000E-01  0.00000E+00  0.00000E+00  0.00000E+00    0.27175E+02  0.99313E+01 -0.37106E+02  0.25345E+01  0.12212E+01 -0.88720E+01      982.00
  0.46523E-01  0.60217E+02    0.25000E-01  0.25000E-01 -0.50000E-01  0.00000E+00  0.00000E+00  0.00000E+00    0.27270E+02  0.10045E+02 -0.37315E+02  0.26956E+01  0.13169E+01 -0.90116E+01      982.00
  0.69761E-01  0.60684E+02    0.37500E-01  0.37500E-01 -0.75000E-01  0.00000E+00  0.00000E+00  0.00000E+00    0.27388E+02  0.10195E+02 -0.37584E+02  0.28679E+01  0.14731E+01 -0.91553E+01      982.00
  0.92986E-01  0.61249E+02    0.50000E-01  0.50000E-01 -0.10000E+00  0.00000E+00  0.00000E+00  0.00000E+00    0.27529E+02  0.10393E+02 -0.37922E+02  0.30596E+01  0.16737E+01 -0.92906E+01      982.00
  0.11620E+00  0.61783E+02    0.62500E-01  0.62500E-01 -0.12500E+00  0.00000E+00  0.00000E+00  0.00000E+00    0.27599E+02  0.10671E+02 -0.38270E+02  0.33133E+01  0.18715E+01 -0.93711E+01      982.00
  0.13943E+00  0.62135E+02    0.75000E-01  0.75000E-01 -0.15000E+00  0.00000E+00  0.00000E+00  0.00000E+00    0.27558E+02  0.10987E+02 -0.38545E+02  0.35391E+01  0.20717E+01 -0.93366E+01      982.00
  0.16270E+00  0.62414E+02    0.87500E-01  0.87500E-01 -0.17500E+00  0.00000E+00  0.00000E+00  0.00000E+00    0.27550E+02  0.11230E+02 -0.38780E+02  0.36403E+01  0.23588E+01 -0.92274E+01      982.00
  0.18600E+00  0.62712E+02    0.10000E+00  0.10000E+00 -0.20000E+00  0.00000E+00  0.00000E+00  0.00000E+00    0.27663E+02  0.11354E+02 -0.39017E+02  0.35881E+01  0.26993E+01 -0.90871E+01      982.00
  0.20933E+00  0.63039E+02    0.11250E+00  0.11250E+00 -0.22500E+00  0.00000E+00  0.00000E+00  0.00000E+00    0.27821E+02  0.11437E+02 -0.39259E+02  0.34956E+01  0.30297E+01 -0.89561E+01      982.00
  0.23268E+00  0.63415E+02    0.12500E+00  0.12500E+00 -0.25000E+00  0.00000E+00  0.00000E+00  0.00000E+00    0.28019E+02  0.11502E+02 -0.39520E+02  0.34037E+01  0.33177E+01 -0.88485E+01      982.00
  0.25605E+00  0.63807E+02    0.13750E+00  0.13750E+00 -0.27500E+00  0.00000E+00  0.00000E+00  0.00000E+00    0.28238E+02  0.11546E+02 -0.39784E+02  0.33188E+01  0.35511E+01 -0.87614E+01      982.00
  0.27943E+00  0.64235E+02    0.15000E+00  0.15000E+00 -0.30000E+00  0.00000E+00  0.00000E+00  0.00000E+00    0.28469E+02  0.11598E+02 -0.40067E+02  0.32579E+01  0.37307E+01 -0.86981E+01      982.00
  0.30282E+00  0.64655E+02    0.16250E+00  0.16250E+00 -0.32500E+00  0.00000E+00  0.00000E+00  0.00000E+00    0.28690E+02  0.11654E+02 -0.40344E+02  0.32196E+01  0.38631E+01 -0.86518E+01      982.00
  0.32622E+00  0.65076E+02    0.17500E+00  0.17500E+00 -0.35000E+00  0.00000E+00  0.00000E+00  0.00000E+00    0.28895E+02  0.11727E+02 -0.40622E+02  0.32095E+01  0.39567E+01 -0.86226E+01      982.00
  0.34963E+00  0.65490E+02    0.18750E+00  0.18750E+00 -0.37500E+00  0.00000E+00  0.00000E+00  0.00000E+00    0.29102E+02  0.11793E+02 -0.40895E+02  0.32097E+01  0.40264E+01 -0.85989E+01      982.00
  0.37305E+00  0.65905E+02    0.20000E+00  0.20000E+00 -0.40000E+00  0.00000E+00  0.00000E+00  0.00000E+00    0.29294E+02  0.11878E+02 -0.41172E+02  0.32312E+01  0.40707E+01 -0.85799E+01      982.00
  0.39647E+00  0.66299E+02    0.21250E+00  0.21250E+00 -0.42500E+00  0.00000E+00  0.00000E+00  0.00000E+00    0.29470E+02  0.11970E+02 -0.41440E+02  0.32659E+01  0.40950E+01 -0.85563E+01      982.00
  0.41991E+00  0.66643E+02    0.22500E+00  0.22500E+00 -0.45000E+00  0.00000E+00  0.00000E+00  0.00000E+00    0.29609E+02  0.12071E+02 -0.41679E+02  0.33104E+01  0.41040E+01 -0.85353E+01      982.00
  0.44337E+00  0.67018E+02    0.23750E+00  0.23750E+00 -0.47500E+00  0.00000E+00  0.00000E+00  0.00000E+00    0.29761E+02  0.12183E+02 -0.41944E+02  0.33672E+01  0.40999E+01 -0.85008E+01      982.00
  0.46684E+00  0.67299E+02    0.25000E+00  0.25000E+00 -0.50000E+00  0.00000E+00  0.00000E+00  0.00000E+00    0.29864E+02  0.12282E+02 -0.42146E+02  0.34035E+01  0.40912E+01 -0.84789E+01      982.00
  0.49032E+00  0.67597E+02    0.26250E+00  0.26250E+00 -0.52500E+00  0.00000E+00  0.00000E+00  0.00000E+00    0.29975E+02  0.12388E+02 -0.42363E+02  0.34485E+01  0.40763E+01 -0.84461E+01      982.00
  0.51382E+00  0.67862E+02    0.27500E+00  0.27500E+00 -0.55000E+00  0.00000E+00  0.00000E+00  0.00000E+00    0.30072E+02  0.12485E+02 -0.42557E+02  0.34811E+01  0.40597E+01 -0.84175E+01      982.00
  0.53734E+00  0.68119E+02    0.28750E+00  0.28750E+00 -0.57500E+00  0.00000E+00  0.00000E+00  0.00000E+00    0.30163E+02  0.12586E+02 -0.42749E+02  0.35231E+01  0.40394E+01 -0.83781E+01      982.00
  0.56087E+00  0.68359E+02    0.30000E+00  0.30000E+00 -0.60000E+00  0.00000E+00  0.00000E+00  0.00000E+00    0.30245E+02  0.12686E+02 -0.42930E+02  0.35638E+01  0.40178E+01 -0.83360E+01      982.00
  0.58442E+00  0.68586E+02    0.31250E+00  0.31250E+00 -0.62500E+00  0.00000E+00  0.00000E+00  0.00000E+00    0.30319E+02  0.12784E+02 -0.43103E+02  0.36025E+01  0.39941E+01 -0.82923E+01      982.00
  0.60799E+00  0.68782E+02    0.32500E+00  0.32500E+00 -0.65000E+00  0.00000E+00  0.00000E+00  0.00000E+00    0.30381E+02  0.12877E+02 -0.43257E+02  0.36383E+01  0.39692E+01 -0.82455E+01      982.00
  0.63157E+00  0.68974E+02    0.33750E+00  0.33750E+00 -0.67500E+00  0.00000E+00  0.00000E+00  0.00000E+00    0.30438E+02  0.12971E+02 -0.43409E+02  0.36723E+01  0.39436E+01 -0.81995E+01      982.00
  0.65517E+00  0.69151E+02    0.35000E+00  0.35000E+00 -0.70000E+00  0.00000E+00  0.00000E+00  0.00000E+00    0.30490E+02  0.13061E+02 -0.43551E+02  0.37045E+01  0.39188E+01 -0.81503E+01      982.00
  0.67879E+00  0.69313E+02    0.36250E+00  0.36250E+00 -0.72500E+00  0.00000E+00  0.00000E+00  0.00000E+00    0.30534E+02  0.13148E+02 -0.43682E+02  0.37334E+01  0.38923E+01 -0.81025E+01      982.00
  0.70243E+00  0.69461E+02    0.37500E+00  0.37500E+00 -0.75000E+00  0.00000E+00  0.00000E+00  0.00000E+00    0.30574E+02  0.13231E+02 -0.43805E+02  0.37594E+01  0.38654E+01 -0.80531E+01      982.00
  0.72607E+00  0.69600E+02    0.38750E+00  0.38750E+00 -0.77500E+00  0.00000E+00  0.00000E+00  0.00000E+00    0.30609E+02  0.13312E+02 -0.43921E+02  0.37835E+01  0.38388E+01 -0.80069E+01      982.00
  0.74974E+00  0.69731E+02    0.40000E+00  0.40000E+00 -0.80000E+00  0.00000E+00  0.00000E+00  0.00000E+00    0.30642E+02  0.13389E+02 -0.44031E+02  0.38051E+01  0.38134E+01 -0.79603E+01      982.00
  0.77342E+00  0.69844E+02    0.41250E+00  0.41250E+00 -0.82500E+00  0.00000E+00  0.00000E+00  0.00000E+00    0.30666E+02  0.13462E+02 -0.44128E+02  0.38253E+01  0.37868E+01 -0.79131E+01      982.00
  0.79711E+00  0.69949E+02    0.42500E+00  0.42500E+00 -0.85000E+00  0.00000E+00  0.00000E+00  0.00000E+00    0.30688E+02  0.13531E+02 -0.44218E+02  0.38417E+01  0.37614E+01 -0.78745E+01      982.00
  0.82082E+00  0.70053E+02    0.43750E+00  0.43750E+00 -0.87500E+00  0.00000E+00  0.00000E+00  0.00000E+00    0.30710E+02  0.13598E+02 -0.44308E+02  0.38583E+01  0.37364E+01 -0.78327E+01      982.00
  0.84453E+00  0.70145E+02    0.45000E+00  0.45000E+00 -0.90000E+00  0.00000E+00  0.00000E+00  0.00000E+00    0.30726E+02  0.13664E+02 -0.44390E+02  0.38741E+01  0.37116E+01 -0.77898E+01      982.00
  0.86827E+00  0.70168E+02    0.46250E+00  0.46250E+00 -0.92500E+00  0.00000E+00  0.00000E+00  0.00000E+00    0.30714E+02  0.13716E+02 -0.44429E+02  0.38784E+01  0.36651E+01 -0.77474E+01      982.00
  0.89201E+00  0.70192E+02    0.47500E+00  0.47500E+00 -0.95000E+00  0.00000E+00  0.00000E+00  0.00000E+00    0.30699E+02  0.13771E+02 -0.44470E+02  0.38762E+01  0.36260E+01 -0.77027E+01      982.00
  0.91577E+00  0.70217E+02    0.48750E+00  0.48750E+00 -0.97500E+00  0.00000E+00  0.00000E+00  0.00000E+00    0.30684E+02  0.13825E+02 -0.44509E+02  0.38747E+01  0.35890E+01 -0.76636E+01      982.00
  0.93954E+00  0.70242E+02    0.50000E+00  0.50000E+00 -0.10000E+01  0.00000E+00  0.00000E+00  0.00000E+00    0.30673E+02  0.13875E+02 -0.44547E+02  0.38716E+01  0.35534E+01 -0.76262E+01      982.00
