          Evm          Svm            E11          E22          E33          E23          E13          E12         SDEV11       SDEV22       SDEV33       SDEV23       SDEV13       SDEV12      TEMP
  0.00000E+00  0.61037E+02    0.00000E+00  0.00000E+00  0.00000E+00  0.00000E+00  0.00000E+00  0.00000E+00    0.24236E+02  0.13285E+02 -0.37521E+02  0.69071E+01 -0.32809E+01  0.98759E+01      982.00
  0.23052E-01  0.61115E+02    0.12500E-01  0.12500E-01 -0.25000E-01  0.00000E+00  0.00000E+00  0.00000E+00    0.24507E+02  0.13155E+02 -0.37661E+02  0.67674E+01 -0.33064E+01  0.96067E+01      982.00
  0.46161E-01  0.61200E+02    0.25000E-01  0.25000E-01 -0.50000E-01  0.00000E+00  0.00000E+00  0.00000E+00    0.24740E+02  0.13067E+02 -0.37807E+02  0.65510E+01 -0.33899E+01  0.93790E+01      982.00
  0.69327E-01  0.61316E+02    0.37500E-01  0.37500E-01 -0.75000E-01  0.00000E+00  0.00000E+00  0.00000E+00    0.24998E+02  0.12963E+02 -0.37962E+02  0.62949E+01 -0.34899E+01  0.91848E+01      982.00
  0.92544E-01  0.61466E+02    0.50000E-01  0.50000E-01 -0.10000E+00  0.00000E+00  0.00000E+00  0.00000E+00    0.25281E+02  0.12842E+02 -0.38123E+02  0.60297E+01 -0.35895E+01  0.90221E+01      982.00
  0.11580E+00  0.61645E+02    0.62500E-01  0.62500E-01 -0.12500E+00  0.00000E+00  0.00000E+00  0.00000E+00    0.25574E+02  0.12715E+02 -0.38288E+02  0.57726E+01 -0.36791E+01  0.88897E+01      982.00
  0.13909E+00  0.61858E+02    0.75000E-01  0.75000E-01 -0.15000E+00  0.00000E+00  0.00000E+00  0.00000E+00    0.25880E+02  0.12578E+02 -0.38459E+02  0.55360E+01 -0.37576E+01  0.87847E+01      982.00
  0.16241E+00  0.62103E+02    0.87500E-01  0.87500E-01 -0.17500E+00  0.00000E+00  0.00000E+00  0.00000E+00    0.26196E+02  0.12439E+02 -0.38635E+02  0.53239E+01 -0.38255E+01  0.87050E+01      982.00
  0.18574E+00  0.62371E+02    0.10000E+00  0.10000E+00 -0.20000E+00  0.00000E+00  0.00000E+00  0.00000E+00    0.26501E+02  0.12316E+02 -0.38817E+02  0.51347E+01 -0.38865E+01  0.86535E+01      982.00
  0.20908E+00  0.62661E+02    0.11250E+00  0.11250E+00 -0.22500E+00  0.00000E+00  0.00000E+00  0.00000E+00    0.26797E+02  0.12206E+02 -0.39003E+02  0.49688E+01 -0.39430E+01  0.86255E+01      982.00
  0.23242E+00  0.62969E+02    0.12500E+00  0.12500E+00 -0.25000E+00  0.00000E+00  0.00000E+00  0.00000E+00    0.27090E+02  0.12103E+02 -0.39193E+02  0.48252E+01 -0.39956E+01  0.86155E+01      982.00
  0.25576E+00  0.63288E+02    0.13750E+00  0.13750E+00 -0.27500E+00  0.00000E+00  0.00000E+00  0.00000E+00    0.27362E+02  0.12024E+02 -0.39386E+02  0.46998E+01 -0.40493E+01  0.86265E+01      982.00
  0.27910E+00  0.63614E+02    0.15000E+00  0.15000E+00 -0.30000E+00  0.00000E+00  0.00000E+00  0.00000E+00    0.27625E+02  0.11952E+02 -0.39577E+02  0.45917E+01 -0.41014E+01  0.86500E+01      982.00
  0.30243E+00  0.63938E+02    0.16250E+00  0.16250E+00 -0.32500E+00  0.00000E+00  0.00000E+00  0.00000E+00    0.27867E+02  0.11899E+02 -0.39766E+02  0.44960E+01 -0.41539E+01  0.86861E+01      982.00
  0.32575E+00  0.64263E+02    0.17500E+00  0.17500E+00 -0.35000E+00  0.00000E+00  0.00000E+00  0.00000E+00    0.28089E+02  0.11864E+02 -0.39953E+02  0.44137E+01 -0.42108E+01  0.87378E+01      982.00
  0.34906E+00  0.64569E+02    0.18750E+00  0.18750E+00 -0.37500E+00  0.00000E+00  0.00000E+00  0.00000E+00    0.28293E+02  0.11833E+02 -0.40127E+02  0.43402E+01 -0.42640E+01  0.87941E+01      982.00
  0.37237E+00  0.64878E+02    0.20000E+00  0.20000E+00 -0.40000E+00  0.00000E+00  0.00000E+00  0.00000E+00    0.28476E+02  0.11826E+02 -0.40302E+02  0.42771E+01 -0.43235E+01  0.88648E+01      982.00
  0.39566E+00  0.65163E+02    0.21250E+00  0.21250E+00 -0.42500E+00  0.00000E+00  0.00000E+00  0.00000E+00    0.28640E+02  0.11821E+02 -0.40461E+02  0.42192E+01 -0.43791E+01  0.89400E+01      982.00
  0.41895E+00  0.65460E+02    0.22500E+00  0.22500E+00 -0.45000E+00  0.00000E+00  0.00000E+00  0.00000E+00    0.28794E+02  0.11829E+02 -0.40623E+02  0.41580E+01 -0.44385E+01  0.90403E+01      982.00
  0.44222E+00  0.65721E+02    0.23750E+00  0.23750E+00 -0.47500E+00  0.00000E+00  0.00000E+00  0.00000E+00    0.28911E+02  0.11856E+02 -0.40768E+02  0.41151E+01 -0.44952E+01  0.91310E+01      982.00
  0.46548E+00  0.65964E+02    0.25000E+00  0.25000E+00 -0.50000E+00  0.00000E+00  0.00000E+00  0.00000E+00    0.29004E+02  0.11896E+02 -0.40900E+02  0.40735E+01 -0.45514E+01  0.92367E+01      982.00
  0.48873E+00  0.66153E+02    0.26250E+00  0.26250E+00 -0.52500E+00  0.00000E+00  0.00000E+00  0.00000E+00    0.29071E+02  0.11936E+02 -0.41007E+02  0.40548E+01 -0.45914E+01  0.93086E+01      982.00
  0.51198E+00  0.66365E+02    0.27500E+00  0.27500E+00 -0.55000E+00  0.00000E+00  0.00000E+00  0.00000E+00    0.29129E+02  0.11992E+02 -0.41122E+02  0.40298E+01 -0.46369E+01  0.94186E+01      982.00
  0.53521E+00  0.66576E+02    0.28750E+00  0.28750E+00 -0.57500E+00  0.00000E+00  0.00000E+00  0.00000E+00    0.29183E+02  0.12052E+02 -0.41234E+02  0.40147E+01 -0.46775E+01  0.95336E+01      982.00
  0.55844E+00  0.66746E+02    0.30000E+00  0.30000E+00 -0.60000E+00  0.00000E+00  0.00000E+00  0.00000E+00    0.29198E+02  0.12127E+02 -0.41325E+02  0.40018E+01 -0.47076E+01  0.96505E+01      982.00
  0.58166E+00  0.66914E+02    0.31250E+00  0.31250E+00 -0.62500E+00  0.00000E+00  0.00000E+00  0.00000E+00    0.29203E+02  0.12212E+02 -0.41415E+02  0.39977E+01 -0.47307E+01  0.97745E+01      982.00
  0.60487E+00  0.67055E+02    0.32500E+00  0.32500E+00 -0.65000E+00  0.00000E+00  0.00000E+00  0.00000E+00    0.29182E+02  0.12308E+02 -0.41490E+02  0.39996E+01 -0.47444E+01  0.99011E+01      982.00
  0.62807E+00  0.67181E+02    0.33750E+00  0.33750E+00 -0.67500E+00  0.00000E+00  0.00000E+00  0.00000E+00    0.29142E+02  0.12415E+02 -0.41557E+02  0.40079E+01 -0.47486E+01  0.10031E+02      982.00
  0.65127E+00  0.67292E+02    0.35000E+00  0.35000E+00 -0.70000E+00  0.00000E+00  0.00000E+00  0.00000E+00    0.29083E+02  0.12534E+02 -0.41617E+02  0.40221E+01 -0.47432E+01  0.10162E+02      982.00
  0.67446E+00  0.67392E+02    0.36250E+00  0.36250E+00 -0.72500E+00  0.00000E+00  0.00000E+00  0.00000E+00    0.29008E+02  0.12665E+02 -0.41672E+02  0.40415E+01 -0.47286E+01  0.10294E+02      982.00
  0.69765E+00  0.67480E+02    0.37500E+00  0.37500E+00 -0.75000E+00  0.00000E+00  0.00000E+00  0.00000E+00    0.28918E+02  0.12805E+02 -0.41722E+02  0.40650E+01 -0.47056E+01  0.10426E+02      982.00
  0.72084E+00  0.67559E+02    0.38750E+00  0.38750E+00 -0.77500E+00  0.00000E+00  0.00000E+00  0.00000E+00    0.28816E+02  0.12953E+02 -0.41769E+02  0.40917E+01 -0.46756E+01  0.10556E+02      982.00
  0.74402E+00  0.67630E+02    0.40000E+00  0.40000E+00 -0.80000E+00  0.00000E+00  0.00000E+00  0.00000E+00    0.28704E+02  0.13109E+02 -0.41812E+02  0.41203E+01 -0.46398E+01  0.10683E+02      982.00
  0.76720E+00  0.67695E+02    0.41250E+00  0.41250E+00 -0.82500E+00  0.00000E+00  0.00000E+00  0.00000E+00    0.28584E+02  0.13269E+02 -0.41853E+02  0.41498E+01 -0.45998E+01  0.10805E+02      982.00
  0.79039E+00  0.67754E+02    0.42500E+00  0.42500E+00 -0.85000E+00  0.00000E+00  0.00000E+00  0.00000E+00    0.28459E+02  0.13433E+02 -0.41892E+02  0.41793E+01 -0.45571E+01  0.10923E+02      982.00
  0.81357E+00  0.67808E+02    0.43750E+00  0.43750E+00 -0.87500E+00  0.00000E+00  0.00000E+00  0.00000E+00    0.28332E+02  0.13598E+02 -0.41929E+02  0.42079E+01 -0.45128E+01  0.11034E+02      982.00
  0.83676E+00  0.67858E+02    0.45000E+00  0.45000E+00 -0.90000E+00  0.00000E+00  0.00000E+00  0.00000E+00    0.28203E+02  0.13763E+02 -0.41966E+02  0.42351E+01 -0.44680E+01  0.11139E+02      982.00
  0.85995E+00  0.67906E+02    0.46250E+00  0.46250E+00 -0.92500E+00  0.00000E+00  0.00000E+00  0.00000E+00    0.28075E+02  0.13926E+02 -0.42000E+02  0.42605E+01 -0.44236E+01  0.11236E+02      982.00
  0.88315E+00  0.67950E+02    0.47500E+00  0.47500E+00 -0.95000E+00  0.00000E+00  0.00000E+00  0.00000E+00    0.27948E+02  0.14086E+02 -0.42034E+02  0.42838E+01 -0.43801E+01  0.11327E+02      982.00
  0.90635E+00  0.67991E+02    0.48750E+00  0.48750E+00 -0.97500E+00  0.00000E+00  0.00000E+00  0.00000E+00    0.27824E+02  0.14243E+02 -0.42067E+02  0.43051E+01 -0.43380E+01  0.11412E+02      982.00
  0.92955E+00  0.67986E+02    0.50000E+00  0.50000E+00 -0.10000E+01  0.00000E+00  0.00000E+00  0.00000E+00    0.27688E+02  0.14387E+02 -0.42075E+02  0.43129E+01 -0.42857E+01  0.11480E+02      982.00
