          Evm          Svm            E11          E22          E33          E23          E13          E12         SDEV11       SDEV22       SDEV33       SDEV23       SDEV13       SDEV12      TEMP
  0.00000E+00  0.49948E+02    0.00000E+00  0.00000E+00  0.00000E+00  0.00000E+00  0.00000E+00  0.00000E+00    0.13629E+02  0.19090E+02 -0.32719E+02 -0.77867E+00  0.45041E+01  0.58031E+00      982.00
  0.24565E-01  0.49552E+02    0.12500E-01  0.12500E-01 -0.25000E-01  0.00000E+00  0.00000E+00  0.00000E+00    0.13635E+02  0.18862E+02 -0.32497E+02 -0.10278E+01  0.43075E+01  0.54327E-01      982.00
  0.49158E-01  0.49221E+02    0.25000E-01  0.25000E-01 -0.50000E-01  0.00000E+00  0.00000E+00  0.00000E+00    0.13689E+02  0.18621E+02 -0.32310E+02 -0.12967E+01  0.40749E+01 -0.50525E+00      982.00
  0.73774E-01  0.48966E+02    0.37500E-01  0.37500E-01 -0.75000E-01  0.00000E+00  0.00000E+00  0.00000E+00    0.13788E+02  0.18374E+02 -0.32163E+02 -0.15975E+01  0.37893E+01 -0.11163E+01      982.00
  0.98405E-01  0.48807E+02    0.50000E-01  0.50000E-01 -0.10000E+00  0.00000E+00  0.00000E+00  0.00000E+00    0.13929E+02  0.18131E+02 -0.32060E+02 -0.19390E+01  0.34360E+01 -0.17911E+01      982.00
  0.12304E+00  0.48770E+02    0.62500E-01  0.62500E-01 -0.12500E+00  0.00000E+00  0.00000E+00  0.00000E+00    0.14103E+02  0.17902E+02 -0.32006E+02 -0.23515E+01  0.29752E+01 -0.25650E+01      982.00
  0.14765E+00  0.48893E+02    0.75000E-01  0.75000E-01 -0.15000E+00  0.00000E+00  0.00000E+00  0.00000E+00    0.14296E+02  0.17704E+02 -0.32000E+02 -0.28824E+01  0.23290E+01 -0.34944E+01      982.00
  0.17219E+00  0.49213E+02    0.87500E-01  0.87500E-01 -0.17500E+00  0.00000E+00  0.00000E+00  0.00000E+00    0.14460E+02  0.17560E+02 -0.32020E+02 -0.35570E+01  0.13868E+01 -0.46243E+01      982.00
  0.19659E+00  0.49689E+02    0.10000E+00  0.10000E+00 -0.20000E+00  0.00000E+00  0.00000E+00  0.00000E+00    0.14570E+02  0.17477E+02 -0.32047E+02 -0.41855E+01  0.33392E+00 -0.57433E+01      982.00
  0.22077E+00  0.50218E+02    0.11250E+00  0.11250E+00 -0.22500E+00  0.00000E+00  0.00000E+00  0.00000E+00    0.14680E+02  0.17438E+02 -0.32118E+02 -0.46000E+01 -0.46702E+00 -0.66089E+01      982.00
  0.24476E+00  0.50750E+02    0.12500E+00  0.12500E+00 -0.25000E+00  0.00000E+00  0.00000E+00  0.00000E+00    0.14793E+02  0.17447E+02 -0.32240E+02 -0.48546E+01 -0.99171E+00 -0.72556E+01      982.00
  0.26858E+00  0.51270E+02    0.13750E+00  0.13750E+00 -0.27500E+00  0.00000E+00  0.00000E+00  0.00000E+00    0.14894E+02  0.17507E+02 -0.32401E+02 -0.50151E+01 -0.13251E+01 -0.77603E+01      982.00
  0.29228E+00  0.51784E+02    0.15000E+00  0.15000E+00 -0.30000E+00  0.00000E+00  0.00000E+00  0.00000E+00    0.14977E+02  0.17612E+02 -0.32590E+02 -0.51235E+01 -0.15462E+01 -0.81805E+01      982.00
  0.31588E+00  0.52291E+02    0.16250E+00  0.16250E+00 -0.32500E+00  0.00000E+00  0.00000E+00  0.00000E+00    0.15042E+02  0.17755E+02 -0.32797E+02 -0.51991E+01 -0.16960E+01 -0.85417E+01      982.00
  0.33940E+00  0.52800E+02    0.17500E+00  0.17500E+00 -0.35000E+00  0.00000E+00  0.00000E+00  0.00000E+00    0.15093E+02  0.17928E+02 -0.33021E+02 -0.52555E+01 -0.18086E+01 -0.88671E+01      982.00
  0.36285E+00  0.53309E+02    0.18750E+00  0.18750E+00 -0.37500E+00  0.00000E+00  0.00000E+00  0.00000E+00    0.15132E+02  0.18124E+02 -0.33256E+02 -0.52981E+01 -0.18976E+01 -0.91594E+01      982.00
  0.38625E+00  0.53821E+02    0.20000E+00  0.20000E+00 -0.40000E+00  0.00000E+00  0.00000E+00  0.00000E+00    0.15163E+02  0.18339E+02 -0.33502E+02 -0.53334E+01 -0.19781E+01 -0.94274E+01      982.00
  0.40959E+00  0.54337E+02    0.21250E+00  0.21250E+00 -0.42500E+00  0.00000E+00  0.00000E+00  0.00000E+00    0.15189E+02  0.18569E+02 -0.33758E+02 -0.53646E+01 -0.20573E+01 -0.96751E+01      982.00
  0.43289E+00  0.54858E+02    0.22500E+00  0.22500E+00 -0.45000E+00  0.00000E+00  0.00000E+00  0.00000E+00    0.15214E+02  0.18810E+02 -0.34024E+02 -0.53894E+01 -0.21326E+01 -0.99035E+01      982.00
  0.45614E+00  0.55387E+02    0.23750E+00  0.23750E+00 -0.47500E+00  0.00000E+00  0.00000E+00  0.00000E+00    0.15238E+02  0.19061E+02 -0.34299E+02 -0.54148E+01 -0.22175E+01 -0.10119E+02      982.00
  0.47937E+00  0.55915E+02    0.25000E+00  0.25000E+00 -0.50000E+00  0.00000E+00  0.00000E+00  0.00000E+00    0.15267E+02  0.19314E+02 -0.34581E+02 -0.54328E+01 -0.23001E+01 -0.10315E+02      982.00
  0.50256E+00  0.56443E+02    0.26250E+00  0.26250E+00 -0.52500E+00  0.00000E+00  0.00000E+00  0.00000E+00    0.15300E+02  0.19569E+02 -0.34868E+02 -0.54473E+01 -0.23857E+01 -0.10496E+02      982.00
  0.52572E+00  0.56970E+02    0.27500E+00  0.27500E+00 -0.55000E+00  0.00000E+00  0.00000E+00  0.00000E+00    0.15337E+02  0.19825E+02 -0.35161E+02 -0.54581E+01 -0.24741E+01 -0.10661E+02      982.00
  0.54887E+00  0.57493E+02    0.28750E+00  0.28750E+00 -0.57500E+00  0.00000E+00  0.00000E+00  0.00000E+00    0.15379E+02  0.20079E+02 -0.35458E+02 -0.54647E+01 -0.25643E+01 -0.10811E+02      982.00
  0.57200E+00  0.58010E+02    0.30000E+00  0.30000E+00 -0.60000E+00  0.00000E+00  0.00000E+00  0.00000E+00    0.15426E+02  0.20331E+02 -0.35757E+02 -0.54670E+01 -0.26554E+01 -0.10947E+02      982.00
  0.59511E+00  0.58520E+02    0.31250E+00  0.31250E+00 -0.62500E+00  0.00000E+00  0.00000E+00  0.00000E+00    0.15479E+02  0.20579E+02 -0.36058E+02 -0.54646E+01 -0.27465E+01 -0.11069E+02      982.00
  0.61822E+00  0.59022E+02    0.32500E+00  0.32500E+00 -0.65000E+00  0.00000E+00  0.00000E+00  0.00000E+00    0.15538E+02  0.20821E+02 -0.36358E+02 -0.54576E+01 -0.28368E+01 -0.11177E+02      982.00
  0.64132E+00  0.59513E+02    0.33750E+00  0.33750E+00 -0.67500E+00  0.00000E+00  0.00000E+00  0.00000E+00    0.15601E+02  0.21057E+02 -0.36658E+02 -0.54458E+01 -0.29255E+01 -0.11272E+02      982.00
  0.66442E+00  0.59992E+02    0.35000E+00  0.35000E+00 -0.70000E+00  0.00000E+00  0.00000E+00  0.00000E+00    0.15670E+02  0.21287E+02 -0.36956E+02 -0.54294E+01 -0.30121E+01 -0.11355E+02      982.00
  0.68752E+00  0.60460E+02    0.36250E+00  0.36250E+00 -0.72500E+00  0.00000E+00  0.00000E+00  0.00000E+00    0.15743E+02  0.21509E+02 -0.37252E+02 -0.54086E+01 -0.30959E+01 -0.11425E+02      982.00
  0.71062E+00  0.60914E+02    0.37500E+00  0.37500E+00 -0.75000E+00  0.00000E+00  0.00000E+00  0.00000E+00    0.15821E+02  0.21723E+02 -0.37543E+02 -0.53836E+01 -0.31767E+01 -0.11485E+02      982.00
  0.73374E+00  0.61354E+02    0.38750E+00  0.38750E+00 -0.77500E+00  0.00000E+00  0.00000E+00  0.00000E+00    0.15902E+02  0.21929E+02 -0.37831E+02 -0.53546E+01 -0.32540E+01 -0.11534E+02      982.00
  0.75686E+00  0.61780E+02    0.40000E+00  0.40000E+00 -0.80000E+00  0.00000E+00  0.00000E+00  0.00000E+00    0.15987E+02  0.22126E+02 -0.38114E+02 -0.53219E+01 -0.33278E+01 -0.11574E+02      982.00
  0.77999E+00  0.62188E+02    0.41250E+00  0.41250E+00 -0.82500E+00  0.00000E+00  0.00000E+00  0.00000E+00    0.16076E+02  0.22314E+02 -0.38391E+02 -0.52837E+01 -0.33919E+01 -0.11601E+02      982.00
  0.80314E+00  0.62586E+02    0.42500E+00  0.42500E+00 -0.85000E+00  0.00000E+00  0.00000E+00  0.00000E+00    0.16167E+02  0.22495E+02 -0.38662E+02 -0.52452E+01 -0.34580E+01 -0.11623E+02      982.00
  0.82631E+00  0.62968E+02    0.43750E+00  0.43750E+00 -0.87500E+00  0.00000E+00  0.00000E+00  0.00000E+00    0.16259E+02  0.22668E+02 -0.38927E+02 -0.52040E+01 -0.35207E+01 -0.11638E+02      982.00
  0.84949E+00  0.63345E+02    0.45000E+00  0.45000E+00 -0.90000E+00  0.00000E+00  0.00000E+00  0.00000E+00    0.16352E+02  0.22838E+02 -0.39191E+02 -0.51658E+01 -0.35728E+01 -0.11646E+02      982.00
  0.87269E+00  0.63698E+02    0.46250E+00  0.46250E+00 -0.92500E+00  0.00000E+00  0.00000E+00  0.00000E+00    0.16447E+02  0.22994E+02 -0.39442E+02 -0.51207E+01 -0.36276E+01 -0.11646E+02      982.00
  0.89591E+00  0.64036E+02    0.47500E+00  0.47500E+00 -0.95000E+00  0.00000E+00  0.00000E+00  0.00000E+00    0.16543E+02  0.23142E+02 -0.39685E+02 -0.50737E+01 -0.36791E+01 -0.11640E+02      982.00
  0.91915E+00  0.64359E+02    0.48750E+00  0.48750E+00 -0.97500E+00  0.00000E+00  0.00000E+00  0.00000E+00    0.16639E+02  0.23282E+02 -0.39922E+02 -0.50252E+01 -0.37271E+01 -0.11629E+02      982.00
  0.94241E+00  0.64669E+02    0.50000E+00  0.50000E+00 -0.10000E+01  0.00000E+00  0.00000E+00  0.00000E+00    0.16735E+02  0.23415E+02 -0.40150E+02 -0.49756E+01 -0.37717E+01 -0.11612E+02      982.00
