          Evm          Svm            E11          E22          E33          E23          E13          E12         SDEV11       SDEV22       SDEV33       SDEV23       SDEV13       SDEV12      TEMP
  0.00000E+00  0.63699E+02    0.00000E+00  0.00000E+00  0.00000E+00  0.00000E+00  0.00000E+00  0.00000E+00    0.20959E+02  0.20435E+02 -0.41393E+02 -0.12889E+01  0.12934E+01  0.80033E+01      982.00
  0.24369E-01  0.63691E+02    0.12500E-01  0.12500E-01 -0.25000E-01  0.00000E+00  0.00000E+00  0.00000E+00    0.20968E+02  0.20410E+02 -0.41378E+02 -0.11414E+01  0.11529E+01  0.80850E+01      982.00
  0.48731E-01  0.63720E+02    0.25000E-01  0.25000E-01 -0.50000E-01  0.00000E+00  0.00000E+00  0.00000E+00    0.20979E+02  0.20397E+02 -0.41377E+02 -0.10140E+01  0.10274E+01  0.81993E+01      982.00
  0.73082E-01  0.63790E+02    0.37500E-01  0.37500E-01 -0.75000E-01  0.00000E+00  0.00000E+00  0.00000E+00    0.21002E+02  0.20394E+02 -0.41396E+02 -0.89093E+00  0.90433E+00  0.83350E+01      982.00
  0.97417E-01  0.63884E+02    0.50000E-01  0.50000E-01 -0.10000E+00  0.00000E+00  0.00000E+00  0.00000E+00    0.21031E+02  0.20398E+02 -0.41429E+02 -0.78046E+00  0.79205E+00  0.84725E+01      982.00
  0.12174E+00  0.64016E+02    0.62500E-01  0.62500E-01 -0.12500E+00  0.00000E+00  0.00000E+00  0.00000E+00    0.21072E+02  0.20409E+02 -0.41481E+02 -0.66572E+00  0.67455E+00  0.86333E+01      982.00
  0.14603E+00  0.64178E+02    0.75000E-01  0.75000E-01 -0.15000E+00  0.00000E+00  0.00000E+00  0.00000E+00    0.21122E+02  0.20426E+02 -0.41548E+02 -0.55584E+00  0.56133E+00  0.88065E+01      982.00
  0.17031E+00  0.64377E+02    0.87500E-01  0.87500E-01 -0.17500E+00  0.00000E+00  0.00000E+00  0.00000E+00    0.21185E+02  0.20452E+02 -0.41637E+02 -0.45001E+00  0.45171E+00  0.89842E+01      982.00
  0.19457E+00  0.64595E+02    0.10000E+00  0.10000E+00 -0.20000E+00  0.00000E+00  0.00000E+00  0.00000E+00    0.21255E+02  0.20483E+02 -0.41737E+02 -0.34815E+00  0.34567E+00  0.91622E+01      982.00
  0.21880E+00  0.64836E+02    0.11250E+00  0.11250E+00 -0.22500E+00  0.00000E+00  0.00000E+00  0.00000E+00    0.21332E+02  0.20520E+02 -0.41852E+02 -0.25029E+00  0.24297E+00  0.93384E+01      982.00
  0.24300E+00  0.65074E+02    0.12500E+00  0.12500E+00 -0.25000E+00  0.00000E+00  0.00000E+00  0.00000E+00    0.21411E+02  0.20558E+02 -0.41969E+02 -0.16169E+00  0.14914E+00  0.94995E+01      982.00
  0.26719E+00  0.65333E+02    0.13750E+00  0.13750E+00 -0.27500E+00  0.00000E+00  0.00000E+00  0.00000E+00    0.21495E+02  0.20603E+02 -0.42099E+02 -0.70968E-01  0.52818E-01  0.96620E+01      982.00
  0.29135E+00  0.65614E+02    0.15000E+00  0.15000E+00 -0.30000E+00  0.00000E+00  0.00000E+00  0.00000E+00    0.21589E+02  0.20651E+02 -0.42240E+02  0.22068E-01 -0.45119E-01  0.98325E+01      982.00
  0.31549E+00  0.65876E+02    0.16250E+00  0.16250E+00 -0.32500E+00  0.00000E+00  0.00000E+00  0.00000E+00    0.21677E+02  0.20700E+02 -0.42377E+02  0.10661E+00 -0.13534E+00  0.99725E+01      982.00
  0.33962E+00  0.66131E+02    0.17500E+00  0.17500E+00 -0.35000E+00  0.00000E+00  0.00000E+00  0.00000E+00    0.21761E+02  0.20750E+02 -0.42511E+02  0.18804E+00 -0.22297E+00  0.10102E+02      982.00
  0.36372E+00  0.66376E+02    0.18750E+00  0.18750E+00 -0.37500E+00  0.00000E+00  0.00000E+00  0.00000E+00    0.21840E+02  0.20800E+02 -0.42641E+02  0.26678E+00 -0.30803E+00  0.10221E+02      982.00
  0.38781E+00  0.66637E+02    0.20000E+00  0.20000E+00 -0.40000E+00  0.00000E+00  0.00000E+00  0.00000E+00    0.21927E+02  0.20853E+02 -0.42781E+02  0.35705E+00 -0.40408E+00  0.10342E+02      982.00
  0.41189E+00  0.66855E+02    0.21250E+00  0.21250E+00 -0.42500E+00  0.00000E+00  0.00000E+00  0.00000E+00    0.21999E+02  0.20899E+02 -0.42898E+02  0.43207E+00 -0.48493E+00  0.10439E+02      982.00
  0.43595E+00  0.67060E+02    0.22500E+00  0.22500E+00 -0.45000E+00  0.00000E+00  0.00000E+00  0.00000E+00    0.22064E+02  0.20945E+02 -0.43009E+02  0.50516E+00 -0.56385E+00  0.10526E+02      982.00
  0.46000E+00  0.67249E+02    0.23750E+00  0.23750E+00 -0.47500E+00  0.00000E+00  0.00000E+00  0.00000E+00    0.22123E+02  0.20988E+02 -0.43111E+02  0.57701E+00 -0.64133E+00  0.10606E+02      982.00
  0.48404E+00  0.67422E+02    0.25000E+00  0.25000E+00 -0.50000E+00  0.00000E+00  0.00000E+00  0.00000E+00    0.22175E+02  0.21029E+02 -0.43204E+02  0.64782E+00 -0.71763E+00  0.10678E+02      982.00
  0.50807E+00  0.67587E+02    0.26250E+00  0.26250E+00 -0.52500E+00  0.00000E+00  0.00000E+00  0.00000E+00    0.22224E+02  0.21069E+02 -0.43294E+02  0.71811E+00 -0.79296E+00  0.10744E+02      982.00
  0.53209E+00  0.67735E+02    0.27500E+00  0.27500E+00 -0.55000E+00  0.00000E+00  0.00000E+00  0.00000E+00    0.22267E+02  0.21106E+02 -0.43373E+02  0.78805E+00 -0.86736E+00  0.10804E+02      982.00
  0.55610E+00  0.67872E+02    0.28750E+00  0.28750E+00 -0.57500E+00  0.00000E+00  0.00000E+00  0.00000E+00    0.22305E+02  0.21140E+02 -0.43446E+02  0.85780E+00 -0.94134E+00  0.10860E+02      982.00
  0.58011E+00  0.67996E+02    0.30000E+00  0.30000E+00 -0.60000E+00  0.00000E+00  0.00000E+00  0.00000E+00    0.22339E+02  0.21172E+02 -0.43510E+02  0.92736E+00 -0.10146E+01  0.10911E+02      982.00
  0.60410E+00  0.68106E+02    0.31250E+00  0.31250E+00 -0.62500E+00  0.00000E+00  0.00000E+00  0.00000E+00    0.22366E+02  0.21199E+02 -0.43565E+02  0.98108E+00 -0.10710E+01  0.10966E+02      982.00
  0.62809E+00  0.68209E+02    0.32500E+00  0.32500E+00 -0.65000E+00  0.00000E+00  0.00000E+00  0.00000E+00    0.22391E+02  0.21226E+02 -0.43616E+02  0.10505E+01 -0.11435E+01  0.11014E+02      982.00
  0.65207E+00  0.68299E+02    0.33750E+00  0.33750E+00 -0.67500E+00  0.00000E+00  0.00000E+00  0.00000E+00    0.22411E+02  0.21248E+02 -0.43659E+02  0.11205E+01 -0.12159E+01  0.11057E+02      982.00
  0.67604E+00  0.68385E+02    0.35000E+00  0.35000E+00 -0.70000E+00  0.00000E+00  0.00000E+00  0.00000E+00    0.22429E+02  0.21271E+02 -0.43700E+02  0.11904E+01 -0.12882E+01  0.11097E+02      982.00
  0.70001E+00  0.68466E+02    0.36250E+00  0.36250E+00 -0.72500E+00  0.00000E+00  0.00000E+00  0.00000E+00    0.22445E+02  0.21292E+02 -0.43737E+02  0.12605E+01 -0.13603E+01  0.11138E+02      982.00
  0.72396E+00  0.68529E+02    0.37500E+00  0.37500E+00 -0.75000E+00  0.00000E+00  0.00000E+00  0.00000E+00    0.22456E+02  0.21308E+02 -0.43763E+02  0.13308E+01 -0.14328E+01  0.11174E+02      982.00
  0.74791E+00  0.68591E+02    0.38750E+00  0.38750E+00 -0.77500E+00  0.00000E+00  0.00000E+00  0.00000E+00    0.22464E+02  0.21323E+02 -0.43787E+02  0.14014E+01 -0.15047E+01  0.11211E+02      982.00
  0.77185E+00  0.68648E+02    0.40000E+00  0.40000E+00 -0.80000E+00  0.00000E+00  0.00000E+00  0.00000E+00    0.22471E+02  0.21337E+02 -0.43808E+02  0.14719E+01 -0.15766E+01  0.11248E+02      982.00
  0.79578E+00  0.68696E+02    0.41250E+00  0.41250E+00 -0.82500E+00  0.00000E+00  0.00000E+00  0.00000E+00    0.22474E+02  0.21349E+02 -0.43823E+02  0.15426E+01 -0.16483E+01  0.11282E+02      982.00
  0.81970E+00  0.68735E+02    0.42500E+00  0.42500E+00 -0.85000E+00  0.00000E+00  0.00000E+00  0.00000E+00    0.22474E+02  0.21358E+02 -0.43832E+02  0.16132E+01 -0.17194E+01  0.11317E+02      982.00
  0.84361E+00  0.68774E+02    0.43750E+00  0.43750E+00 -0.87500E+00  0.00000E+00  0.00000E+00  0.00000E+00    0.22473E+02  0.21366E+02 -0.43840E+02  0.16835E+01 -0.17905E+01  0.11351E+02      982.00
  0.86752E+00  0.68806E+02    0.45000E+00  0.45000E+00 -0.90000E+00  0.00000E+00  0.00000E+00  0.00000E+00    0.22470E+02  0.21372E+02 -0.43842E+02  0.17537E+01 -0.18612E+01  0.11385E+02      982.00
  0.89141E+00  0.68835E+02    0.46250E+00  0.46250E+00 -0.92500E+00  0.00000E+00  0.00000E+00  0.00000E+00    0.22466E+02  0.21378E+02 -0.43843E+02  0.18235E+01 -0.19312E+01  0.11418E+02      982.00
  0.91530E+00  0.68867E+02    0.47500E+00  0.47500E+00 -0.95000E+00  0.00000E+00  0.00000E+00  0.00000E+00    0.22461E+02  0.21382E+02 -0.43843E+02  0.18796E+01 -0.19879E+01  0.11465E+02      982.00
  0.93917E+00  0.68846E+02    0.48750E+00  0.48750E+00 -0.97500E+00  0.00000E+00  0.00000E+00  0.00000E+00    0.22438E+02  0.21374E+02 -0.43812E+02  0.19418E+01 -0.20485E+01  0.11490E+02      982.00
  0.96304E+00  0.68826E+02    0.50000E+00  0.50000E+00 -0.10000E+01  0.00000E+00  0.00000E+00  0.00000E+00    0.22416E+02  0.21366E+02 -0.43782E+02  0.20042E+01 -0.21096E+01  0.11514E+02      982.00
