          Evm          Svm            E11          E22          E33          E23          E13          E12         SDEV11       SDEV22       SDEV33       SDEV23       SDEV13       SDEV12      TEMP
  0.00000E+00  0.62852E+02    0.00000E+00  0.00000E+00  0.00000E+00  0.00000E+00  0.00000E+00  0.00000E+00    0.27262E+02  0.12244E+02 -0.39506E+02  0.58521E+01  0.10820E+00 -0.74570E+01      982.00
  0.23571E-01  0.63017E+02    0.12500E-01  0.12500E-01 -0.25000E-01  0.00000E+00  0.00000E+00  0.00000E+00    0.27503E+02  0.12133E+02 -0.39636E+02  0.56538E+01  0.15126E+00 -0.73760E+01      982.00
  0.47157E-01  0.63290E+02    0.25000E-01  0.25000E-01 -0.50000E-01  0.00000E+00  0.00000E+00  0.00000E+00    0.27786E+02  0.12042E+02 -0.39828E+02  0.54922E+01  0.25572E+00 -0.73001E+01      982.00
  0.70756E-01  0.63690E+02    0.37500E-01  0.37500E-01 -0.75000E-01  0.00000E+00  0.00000E+00  0.00000E+00    0.28139E+02  0.11960E+02 -0.40099E+02  0.53511E+01  0.41738E+00 -0.72097E+01      982.00
  0.94366E-01  0.64176E+02    0.50000E-01  0.50000E-01 -0.10000E+00  0.00000E+00  0.00000E+00  0.00000E+00    0.28501E+02  0.11930E+02 -0.40431E+02  0.52671E+01  0.59351E+00 -0.70812E+01      982.00
  0.11799E+00  0.64522E+02    0.62500E-01  0.62500E-01 -0.12500E+00  0.00000E+00  0.00000E+00  0.00000E+00    0.28689E+02  0.12019E+02 -0.40708E+02  0.52549E+01  0.71965E+00 -0.68763E+01      982.00
  0.14165E+00  0.64637E+02    0.75000E-01  0.75000E-01 -0.15000E+00  0.00000E+00  0.00000E+00  0.00000E+00    0.28735E+02  0.12130E+02 -0.40865E+02  0.51863E+01  0.89119E+00 -0.65981E+01      982.00
  0.16536E+00  0.64729E+02    0.87500E-01  0.87500E-01 -0.17500E+00  0.00000E+00  0.00000E+00  0.00000E+00    0.28839E+02  0.12164E+02 -0.41003E+02  0.50084E+01  0.11805E+01 -0.62986E+01      982.00
  0.18911E+00  0.64903E+02    0.10000E+00  0.10000E+00 -0.20000E+00  0.00000E+00  0.00000E+00  0.00000E+00    0.29012E+02  0.12159E+02 -0.41172E+02  0.48080E+01  0.15260E+01 -0.60297E+01      982.00
  0.21290E+00  0.65138E+02    0.11250E+00  0.11250E+00 -0.22500E+00  0.00000E+00  0.00000E+00  0.00000E+00    0.29226E+02  0.12133E+02 -0.41359E+02  0.46123E+01  0.18586E+01 -0.58021E+01      982.00
  0.23671E+00  0.65414E+02    0.12500E+00  0.12500E+00 -0.25000E+00  0.00000E+00  0.00000E+00  0.00000E+00    0.29435E+02  0.12124E+02 -0.41559E+02  0.44523E+01  0.21420E+01 -0.56277E+01      982.00
  0.26054E+00  0.65726E+02    0.13750E+00  0.13750E+00 -0.27500E+00  0.00000E+00  0.00000E+00  0.00000E+00    0.29654E+02  0.12117E+02 -0.41771E+02  0.43202E+01  0.23689E+01 -0.54949E+01      982.00
  0.28437E+00  0.66059E+02    0.15000E+00  0.15000E+00 -0.30000E+00  0.00000E+00  0.00000E+00  0.00000E+00    0.29868E+02  0.12123E+02 -0.41991E+02  0.42200E+01  0.25418E+01 -0.54008E+01      982.00
  0.30821E+00  0.66404E+02    0.16250E+00  0.16250E+00 -0.32500E+00  0.00000E+00  0.00000E+00  0.00000E+00    0.30076E+02  0.12140E+02 -0.42215E+02  0.41478E+01  0.26692E+01 -0.53369E+01      982.00
  0.33205E+00  0.66754E+02    0.17500E+00  0.17500E+00 -0.35000E+00  0.00000E+00  0.00000E+00  0.00000E+00    0.30275E+02  0.12166E+02 -0.42441E+02  0.40989E+01  0.27606E+01 -0.52959E+01      982.00
  0.35589E+00  0.67101E+02    0.18750E+00  0.18750E+00 -0.37500E+00  0.00000E+00  0.00000E+00  0.00000E+00    0.30456E+02  0.12210E+02 -0.42665E+02  0.40744E+01  0.28214E+01 -0.52712E+01      982.00
  0.37973E+00  0.67417E+02    0.20000E+00  0.20000E+00 -0.40000E+00  0.00000E+00  0.00000E+00  0.00000E+00    0.30620E+02  0.12251E+02 -0.42871E+02  0.40563E+01  0.28599E+01 -0.52515E+01      982.00
  0.40358E+00  0.67740E+02    0.21250E+00  0.21250E+00 -0.42500E+00  0.00000E+00  0.00000E+00  0.00000E+00    0.30783E+02  0.12297E+02 -0.43080E+02  0.40543E+01  0.28861E+01 -0.52397E+01      982.00
  0.42743E+00  0.68066E+02    0.22500E+00  0.22500E+00 -0.45000E+00  0.00000E+00  0.00000E+00  0.00000E+00    0.30941E+02  0.12352E+02 -0.43293E+02  0.40617E+01  0.28987E+01 -0.52286E+01      982.00
  0.45128E+00  0.68386E+02    0.23750E+00  0.23750E+00 -0.47500E+00  0.00000E+00  0.00000E+00  0.00000E+00    0.31091E+02  0.12413E+02 -0.43504E+02  0.40731E+01  0.28983E+01 -0.52148E+01      982.00
  0.47513E+00  0.68642E+02    0.25000E+00  0.25000E+00 -0.50000E+00  0.00000E+00  0.00000E+00  0.00000E+00    0.31201E+02  0.12476E+02 -0.43678E+02  0.40880E+01  0.28891E+01 -0.52025E+01      982.00
  0.49900E+00  0.68880E+02    0.26250E+00  0.26250E+00 -0.52500E+00  0.00000E+00  0.00000E+00  0.00000E+00    0.31300E+02  0.12540E+02 -0.43839E+02  0.41047E+01  0.28759E+01 -0.51905E+01      982.00
  0.52286E+00  0.69099E+02    0.27500E+00  0.27500E+00 -0.55000E+00  0.00000E+00  0.00000E+00  0.00000E+00    0.31389E+02  0.12601E+02 -0.43990E+02  0.41212E+01  0.28602E+01 -0.51785E+01      982.00
  0.54674E+00  0.69302E+02    0.28750E+00  0.28750E+00 -0.57500E+00  0.00000E+00  0.00000E+00  0.00000E+00    0.31470E+02  0.12660E+02 -0.44130E+02  0.41369E+01  0.28429E+01 -0.51666E+01      982.00
  0.57062E+00  0.69492E+02    0.30000E+00  0.30000E+00 -0.60000E+00  0.00000E+00  0.00000E+00  0.00000E+00    0.31545E+02  0.12716E+02 -0.44261E+02  0.41529E+01  0.28249E+01 -0.51554E+01      982.00
  0.59450E+00  0.69644E+02    0.31250E+00  0.31250E+00 -0.62500E+00  0.00000E+00  0.00000E+00  0.00000E+00    0.31603E+02  0.12762E+02 -0.44365E+02  0.41693E+01  0.28124E+01 -0.51482E+01      982.00
  0.61839E+00  0.69805E+02    0.32500E+00  0.32500E+00 -0.65000E+00  0.00000E+00  0.00000E+00  0.00000E+00    0.31665E+02  0.12813E+02 -0.44478E+02  0.41805E+01  0.27931E+01 -0.51374E+01      982.00
  0.64228E+00  0.69952E+02    0.33750E+00  0.33750E+00 -0.67500E+00  0.00000E+00  0.00000E+00  0.00000E+00    0.31721E+02  0.12861E+02 -0.44582E+02  0.41909E+01  0.27737E+01 -0.51264E+01      982.00
  0.66618E+00  0.70088E+02    0.35000E+00  0.35000E+00 -0.70000E+00  0.00000E+00  0.00000E+00  0.00000E+00    0.31771E+02  0.12907E+02 -0.44677E+02  0.42003E+01  0.27544E+01 -0.51160E+01      982.00
  0.69009E+00  0.70212E+02    0.36250E+00  0.36250E+00 -0.72500E+00  0.00000E+00  0.00000E+00  0.00000E+00    0.31817E+02  0.12949E+02 -0.44766E+02  0.42086E+01  0.27354E+01 -0.51061E+01      982.00
  0.71400E+00  0.70327E+02    0.37500E+00  0.37500E+00 -0.75000E+00  0.00000E+00  0.00000E+00  0.00000E+00    0.31858E+02  0.12990E+02 -0.44848E+02  0.42160E+01  0.27169E+01 -0.50969E+01      982.00
  0.73791E+00  0.70432E+02    0.38750E+00  0.38750E+00 -0.77500E+00  0.00000E+00  0.00000E+00  0.00000E+00    0.31896E+02  0.13027E+02 -0.44923E+02  0.42225E+01  0.26988E+01 -0.50884E+01      982.00
  0.76183E+00  0.70542E+02    0.40000E+00  0.40000E+00 -0.80000E+00  0.00000E+00  0.00000E+00  0.00000E+00    0.31931E+02  0.13074E+02 -0.45005E+02  0.42315E+01  0.26694E+01 -0.50707E+01      982.00
  0.78575E+00  0.70618E+02    0.41250E+00  0.41250E+00 -0.82500E+00  0.00000E+00  0.00000E+00  0.00000E+00    0.31960E+02  0.13096E+02 -0.45057E+02  0.42342E+01  0.26634E+01 -0.50732E+01      982.00
  0.80968E+00  0.70708E+02    0.42500E+00  0.42500E+00 -0.85000E+00  0.00000E+00  0.00000E+00  0.00000E+00    0.31988E+02  0.13136E+02 -0.45124E+02  0.42404E+01  0.26367E+01 -0.50591E+01      982.00
  0.83361E+00  0.70766E+02    0.43750E+00  0.43750E+00 -0.87500E+00  0.00000E+00  0.00000E+00  0.00000E+00    0.32009E+02  0.13155E+02 -0.45164E+02  0.42493E+01  0.26283E+01 -0.50578E+01      982.00
  0.85754E+00  0.70785E+02    0.45000E+00  0.45000E+00 -0.90000E+00  0.00000E+00  0.00000E+00  0.00000E+00    0.32020E+02  0.13165E+02 -0.45184E+02  0.42210E+01  0.25983E+01 -0.50522E+01      982.00
  0.88148E+00  0.70792E+02    0.46250E+00  0.46250E+00 -0.92500E+00  0.00000E+00  0.00000E+00  0.00000E+00    0.32017E+02  0.13179E+02 -0.45197E+02  0.42004E+01  0.25713E+01 -0.50472E+01      982.00
  0.90542E+00  0.70799E+02    0.47500E+00  0.47500E+00 -0.95000E+00  0.00000E+00  0.00000E+00  0.00000E+00    0.32015E+02  0.13190E+02 -0.45205E+02  0.41918E+01  0.25627E+01 -0.50464E+01      982.00
  0.92937E+00  0.70802E+02    0.48750E+00  0.48750E+00 -0.97500E+00  0.00000E+00  0.00000E+00  0.00000E+00    0.32011E+02  0.13203E+02 -0.45213E+02  0.41799E+01  0.25429E+01 -0.50418E+01      982.00
  0.95331E+00  0.70806E+02    0.50000E+00  0.50000E+00 -0.10000E+01  0.00000E+00  0.00000E+00  0.00000E+00    0.32006E+02  0.13217E+02 -0.45223E+02  0.41671E+01  0.25231E+01 -0.50378E+01      982.00
