          Evm          Svm            E11          E22          E33          E23          E13          E12         SDEV11       SDEV22       SDEV33       SDEV23       SDEV13       SDEV12      TEMP
  0.00000E+00  0.62576E+02    0.00000E+00  0.00000E+00  0.00000E+00  0.00000E+00  0.00000E+00  0.00000E+00    0.20474E+02  0.20603E+02 -0.41077E+02  0.50293E+00 -0.17691E+01  0.60330E+01      982.00
  0.24616E-01  0.62734E+02    0.12500E-01  0.12500E-01 -0.25000E-01  0.00000E+00  0.00000E+00  0.00000E+00    0.19575E+02  0.21558E+02 -0.41134E+02  0.39901E+00 -0.16311E+01  0.62491E+01      982.00
  0.49204E-01  0.62852E+02    0.25000E-01  0.25000E-01 -0.50000E-01  0.00000E+00  0.00000E+00  0.00000E+00    0.18880E+02  0.22280E+02 -0.41160E+02  0.44597E+00 -0.14835E+01  0.63944E+01      982.00
  0.73762E-01  0.62959E+02    0.37500E-01  0.37500E-01 -0.75000E-01  0.00000E+00  0.00000E+00  0.00000E+00    0.18340E+02  0.22837E+02 -0.41177E+02  0.56298E+00 -0.13535E+01  0.65144E+01      982.00
  0.98288E-01  0.63076E+02    0.50000E-01  0.50000E-01 -0.10000E+00  0.00000E+00  0.00000E+00  0.00000E+00    0.17917E+02  0.23281E+02 -0.41198E+02  0.70641E+00 -0.12500E+01  0.66337E+01      982.00
  0.12278E+00  0.63217E+02    0.62500E-01  0.62500E-01 -0.12500E+00  0.00000E+00  0.00000E+00  0.00000E+00    0.17581E+02  0.23651E+02 -0.41232E+02  0.85527E+00 -0.11732E+01  0.67630E+01      982.00
  0.14724E+00  0.63388E+02    0.75000E-01  0.75000E-01 -0.15000E+00  0.00000E+00  0.00000E+00  0.00000E+00    0.17313E+02  0.23972E+02 -0.41284E+02  0.10005E+01 -0.11205E+01  0.69058E+01      982.00
  0.17166E+00  0.63590E+02    0.87500E-01  0.87500E-01 -0.17500E+00  0.00000E+00  0.00000E+00  0.00000E+00    0.17096E+02  0.24259E+02 -0.41356E+02  0.11386E+01 -0.10881E+01  0.70616E+01      982.00
  0.19605E+00  0.63820E+02    0.10000E+00  0.10000E+00 -0.20000E+00  0.00000E+00  0.00000E+00  0.00000E+00    0.16922E+02  0.24523E+02 -0.41444E+02  0.12686E+01 -0.10726E+01  0.72281E+01      982.00
  0.22040E+00  0.64076E+02    0.11250E+00  0.11250E+00 -0.22500E+00  0.00000E+00  0.00000E+00  0.00000E+00    0.16788E+02  0.24761E+02 -0.41549E+02  0.13934E+01 -0.10701E+01  0.74066E+01      982.00
  0.24472E+00  0.64348E+02    0.12500E+00  0.12500E+00 -0.25000E+00  0.00000E+00  0.00000E+00  0.00000E+00    0.16676E+02  0.24988E+02 -0.41664E+02  0.15088E+01 -0.10800E+01  0.75886E+01      982.00
  0.26900E+00  0.64627E+02    0.13750E+00  0.13750E+00 -0.27500E+00  0.00000E+00  0.00000E+00  0.00000E+00    0.16590E+02  0.25195E+02 -0.41785E+02  0.16191E+01 -0.11002E+01  0.77716E+01      982.00
  0.29325E+00  0.64917E+02    0.15000E+00  0.15000E+00 -0.30000E+00  0.00000E+00  0.00000E+00  0.00000E+00    0.16531E+02  0.25381E+02 -0.41913E+02  0.17259E+01 -0.11286E+01  0.79624E+01      982.00
  0.31746E+00  0.65197E+02    0.16250E+00  0.16250E+00 -0.32500E+00  0.00000E+00  0.00000E+00  0.00000E+00    0.16484E+02  0.25551E+02 -0.42036E+02  0.18214E+01 -0.11630E+01  0.81493E+01      982.00
  0.34164E+00  0.65473E+02    0.17500E+00  0.17500E+00 -0.35000E+00  0.00000E+00  0.00000E+00  0.00000E+00    0.16456E+02  0.25701E+02 -0.42157E+02  0.19107E+01 -0.12035E+01  0.83387E+01      982.00
  0.36578E+00  0.65773E+02    0.18750E+00  0.18750E+00 -0.37500E+00  0.00000E+00  0.00000E+00  0.00000E+00    0.16444E+02  0.25844E+02 -0.42288E+02  0.19984E+01 -0.12520E+01  0.85550E+01      982.00
  0.38989E+00  0.66027E+02    0.20000E+00  0.20000E+00 -0.40000E+00  0.00000E+00  0.00000E+00  0.00000E+00    0.16462E+02  0.25939E+02 -0.42400E+02  0.20841E+01 -0.13098E+01  0.87363E+01      982.00
  0.41397E+00  0.66265E+02    0.21250E+00  0.21250E+00 -0.42500E+00  0.00000E+00  0.00000E+00  0.00000E+00    0.16499E+02  0.26006E+02 -0.42505E+02  0.21638E+01 -0.13733E+01  0.89163E+01      982.00
  0.43803E+00  0.66465E+02    0.22500E+00  0.22500E+00 -0.45000E+00  0.00000E+00  0.00000E+00  0.00000E+00    0.16541E+02  0.26052E+02 -0.42593E+02  0.22395E+01 -0.14406E+01  0.90668E+01      982.00
  0.46206E+00  0.66680E+02    0.23750E+00  0.23750E+00 -0.47500E+00  0.00000E+00  0.00000E+00  0.00000E+00    0.16590E+02  0.26094E+02 -0.42684E+02  0.23102E+01 -0.15161E+01  0.92408E+01      982.00
  0.48606E+00  0.66870E+02    0.25000E+00  0.25000E+00 -0.50000E+00  0.00000E+00  0.00000E+00  0.00000E+00    0.16656E+02  0.26107E+02 -0.42763E+02  0.23703E+01 -0.15922E+01  0.94093E+01      982.00
  0.51004E+00  0.67045E+02    0.26250E+00  0.26250E+00 -0.52500E+00  0.00000E+00  0.00000E+00  0.00000E+00    0.16733E+02  0.26101E+02 -0.42834E+02  0.24250E+01 -0.16715E+01  0.95732E+01      982.00
  0.53400E+00  0.67209E+02    0.27500E+00  0.27500E+00 -0.55000E+00  0.00000E+00  0.00000E+00  0.00000E+00    0.16812E+02  0.26087E+02 -0.42899E+02  0.24760E+01 -0.17554E+01  0.97334E+01      982.00
  0.55794E+00  0.67353E+02    0.28750E+00  0.28750E+00 -0.57500E+00  0.00000E+00  0.00000E+00  0.00000E+00    0.16906E+02  0.26048E+02 -0.42954E+02  0.25206E+01 -0.18382E+01  0.98862E+01      982.00
  0.58185E+00  0.67483E+02    0.30000E+00  0.30000E+00 -0.60000E+00  0.00000E+00  0.00000E+00  0.00000E+00    0.17007E+02  0.25995E+02 -0.43002E+02  0.25614E+01 -0.19216E+01  0.10033E+02      982.00
  0.60575E+00  0.67602E+02    0.31250E+00  0.31250E+00 -0.62500E+00  0.00000E+00  0.00000E+00  0.00000E+00    0.17114E+02  0.25930E+02 -0.43044E+02  0.25989E+01 -0.20048E+01  0.10174E+02      982.00
  0.62963E+00  0.67709E+02    0.32500E+00  0.32500E+00 -0.65000E+00  0.00000E+00  0.00000E+00  0.00000E+00    0.17225E+02  0.25856E+02 -0.43081E+02  0.26337E+01 -0.20872E+01  0.10309E+02      982.00
  0.65349E+00  0.67804E+02    0.33750E+00  0.33750E+00 -0.67500E+00  0.00000E+00  0.00000E+00  0.00000E+00    0.17348E+02  0.25765E+02 -0.43113E+02  0.26651E+01 -0.21669E+01  0.10437E+02      982.00
  0.67733E+00  0.67893E+02    0.35000E+00  0.35000E+00 -0.70000E+00  0.00000E+00  0.00000E+00  0.00000E+00    0.17462E+02  0.25678E+02 -0.43141E+02  0.26960E+01 -0.22465E+01  0.10559E+02      982.00
  0.70116E+00  0.67975E+02    0.36250E+00  0.36250E+00 -0.72500E+00  0.00000E+00  0.00000E+00  0.00000E+00    0.17575E+02  0.25589E+02 -0.43164E+02  0.27254E+01 -0.23241E+01  0.10674E+02      982.00
  0.72497E+00  0.68048E+02    0.37500E+00  0.37500E+00 -0.75000E+00  0.00000E+00  0.00000E+00  0.00000E+00    0.17687E+02  0.25497E+02 -0.43184E+02  0.27536E+01 -0.23994E+01  0.10784E+02      982.00
  0.74877E+00  0.68113E+02    0.38750E+00  0.38750E+00 -0.77500E+00  0.00000E+00  0.00000E+00  0.00000E+00    0.17810E+02  0.25392E+02 -0.43201E+02  0.27795E+01 -0.24732E+01  0.10885E+02      982.00
  0.77255E+00  0.68174E+02    0.40000E+00  0.40000E+00 -0.80000E+00  0.00000E+00  0.00000E+00  0.00000E+00    0.17916E+02  0.25299E+02 -0.43215E+02  0.28062E+01 -0.25444E+01  0.10982E+02      982.00
  0.79633E+00  0.68230E+02    0.41250E+00  0.41250E+00 -0.82500E+00  0.00000E+00  0.00000E+00  0.00000E+00    0.18018E+02  0.25208E+02 -0.43226E+02  0.28322E+01 -0.26131E+01  0.11074E+02      982.00
  0.82008E+00  0.68281E+02    0.42500E+00  0.42500E+00 -0.85000E+00  0.00000E+00  0.00000E+00  0.00000E+00    0.18117E+02  0.25118E+02 -0.43235E+02  0.28576E+01 -0.26795E+01  0.11160E+02      982.00
  0.84383E+00  0.68327E+02    0.43750E+00  0.43750E+00 -0.87500E+00  0.00000E+00  0.00000E+00  0.00000E+00    0.18211E+02  0.25030E+02 -0.43241E+02  0.28826E+01 -0.27436E+01  0.11242E+02      982.00
  0.86756E+00  0.68367E+02    0.45000E+00  0.45000E+00 -0.90000E+00  0.00000E+00  0.00000E+00  0.00000E+00    0.18316E+02  0.24930E+02 -0.43246E+02  0.29071E+01 -0.28112E+01  0.11315E+02      982.00
  0.89128E+00  0.68405E+02    0.46250E+00  0.46250E+00 -0.92500E+00  0.00000E+00  0.00000E+00  0.00000E+00    0.18402E+02  0.24847E+02 -0.43249E+02  0.29310E+01 -0.28716E+01  0.11387E+02      982.00
  0.91499E+00  0.68440E+02    0.47500E+00  0.47500E+00 -0.95000E+00  0.00000E+00  0.00000E+00  0.00000E+00    0.18482E+02  0.24768E+02 -0.43250E+02  0.29546E+01 -0.29298E+01  0.11455E+02      982.00
  0.93869E+00  0.68429E+02    0.48750E+00  0.48750E+00 -0.97500E+00  0.00000E+00  0.00000E+00  0.00000E+00    0.18543E+02  0.24681E+02 -0.43225E+02  0.29696E+01 -0.29755E+01  0.11510E+02      982.00
  0.96238E+00  0.68420E+02    0.50000E+00  0.50000E+00 -0.10000E+01  0.00000E+00  0.00000E+00  0.00000E+00    0.18613E+02  0.24592E+02 -0.43205E+02  0.29835E+01 -0.30243E+01  0.11552E+02      982.00
