          Evm          Svm            E11          E22          E33          E23          E13          E12         SDEV11       SDEV22       SDEV33       SDEV23       SDEV13       SDEV12      TEMP
  0.00000E+00  0.61427E+02    0.00000E+00  0.00000E+00  0.00000E+00  0.00000E+00  0.00000E+00  0.00000E+00    0.11023E+02  0.27277E+02 -0.38300E+02 -0.65608E+00 -0.44594E+01 -0.84394E+01      982.00
  0.23381E-01  0.61620E+02    0.12500E-01  0.12500E-01 -0.25000E-01  0.00000E+00  0.00000E+00  0.00000E+00    0.11045E+02  0.27391E+02 -0.38436E+02 -0.72486E+00 -0.43979E+01 -0.84269E+01      982.00
  0.46772E-01  0.61960E+02    0.25000E-01  0.25000E-01 -0.50000E-01  0.00000E+00  0.00000E+00  0.00000E+00    0.11110E+02  0.27553E+02 -0.38663E+02 -0.84239E+00 -0.43633E+01 -0.84401E+01      982.00
  0.70172E-01  0.62408E+02    0.37500E-01  0.37500E-01 -0.75000E-01  0.00000E+00  0.00000E+00  0.00000E+00    0.11184E+02  0.27769E+02 -0.38953E+02 -0.10292E+01 -0.43476E+01 -0.84587E+01      982.00
  0.93578E-01  0.62933E+02    0.50000E-01  0.50000E-01 -0.10000E+00  0.00000E+00  0.00000E+00  0.00000E+00    0.11308E+02  0.27993E+02 -0.39301E+02 -0.12459E+01 -0.43835E+01 -0.84489E+01      982.00
  0.11700E+00  0.63358E+02    0.62500E-01  0.62500E-01 -0.12500E+00  0.00000E+00  0.00000E+00  0.00000E+00    0.11551E+02  0.28069E+02 -0.39620E+02 -0.14172E+01 -0.45107E+01 -0.83801E+01      982.00
  0.14045E+00  0.63551E+02    0.75000E-01  0.75000E-01 -0.15000E+00  0.00000E+00  0.00000E+00  0.00000E+00    0.11779E+02  0.28044E+02 -0.39823E+02 -0.16246E+01 -0.45495E+01 -0.82047E+01      982.00
  0.16395E+00  0.63695E+02    0.87500E-01  0.87500E-01 -0.17500E+00  0.00000E+00  0.00000E+00  0.00000E+00    0.11891E+02  0.28101E+02 -0.39992E+02 -0.19398E+01 -0.44289E+01 -0.79847E+01      982.00
  0.18749E+00  0.63923E+02    0.10000E+00  0.10000E+00 -0.20000E+00  0.00000E+00  0.00000E+00  0.00000E+00    0.11948E+02  0.28243E+02 -0.40191E+02 -0.23104E+01 -0.42691E+01 -0.77872E+01      982.00
  0.21107E+00  0.64207E+02    0.11250E+00  0.11250E+00 -0.22500E+00  0.00000E+00  0.00000E+00  0.00000E+00    0.11976E+02  0.28429E+02 -0.40405E+02 -0.26668E+01 -0.41016E+01 -0.76254E+01      982.00
  0.23467E+00  0.64532E+02    0.12500E+00  0.12500E+00 -0.25000E+00  0.00000E+00  0.00000E+00  0.00000E+00    0.11996E+02  0.28635E+02 -0.40631E+02 -0.29745E+01 -0.39491E+01 -0.75041E+01      982.00
  0.25828E+00  0.64885E+02    0.13750E+00  0.13750E+00 -0.27500E+00  0.00000E+00  0.00000E+00  0.00000E+00    0.12024E+02  0.28843E+02 -0.40866E+02 -0.32235E+01 -0.38234E+01 -0.74212E+01      982.00
  0.28190E+00  0.65250E+02    0.15000E+00  0.15000E+00 -0.30000E+00  0.00000E+00  0.00000E+00  0.00000E+00    0.12071E+02  0.29035E+02 -0.41105E+02 -0.34169E+01 -0.37319E+01 -0.73752E+01      982.00
  0.30552E+00  0.65622E+02    0.16250E+00  0.16250E+00 -0.32500E+00  0.00000E+00  0.00000E+00  0.00000E+00    0.12124E+02  0.29222E+02 -0.41346E+02 -0.35641E+01 -0.36616E+01 -0.73538E+01      982.00
  0.32915E+00  0.65990E+02    0.17500E+00  0.17500E+00 -0.35000E+00  0.00000E+00  0.00000E+00  0.00000E+00    0.12189E+02  0.29395E+02 -0.41584E+02 -0.36741E+01 -0.36132E+01 -0.73526E+01      982.00
  0.35278E+00  0.66349E+02    0.18750E+00  0.18750E+00 -0.37500E+00  0.00000E+00  0.00000E+00  0.00000E+00    0.12265E+02  0.29552E+02 -0.41817E+02 -0.37557E+01 -0.35838E+01 -0.73670E+01      982.00
  0.37641E+00  0.66677E+02    0.20000E+00  0.20000E+00 -0.40000E+00  0.00000E+00  0.00000E+00  0.00000E+00    0.12349E+02  0.29683E+02 -0.42032E+02 -0.38125E+01 -0.35667E+01 -0.73869E+01      982.00
  0.40005E+00  0.67030E+02    0.21250E+00  0.21250E+00 -0.42500E+00  0.00000E+00  0.00000E+00  0.00000E+00    0.12443E+02  0.29816E+02 -0.42260E+02 -0.38655E+01 -0.35649E+01 -0.74285E+01      982.00
  0.42369E+00  0.67374E+02    0.22500E+00  0.22500E+00 -0.45000E+00  0.00000E+00  0.00000E+00  0.00000E+00    0.12560E+02  0.29928E+02 -0.42489E+02 -0.38980E+01 -0.35715E+01 -0.74678E+01      982.00
  0.44734E+00  0.67655E+02    0.23750E+00  0.23750E+00 -0.47500E+00  0.00000E+00  0.00000E+00  0.00000E+00    0.12678E+02  0.30004E+02 -0.42682E+02 -0.39107E+01 -0.35888E+01 -0.74975E+01      982.00
  0.47100E+00  0.67907E+02    0.25000E+00  0.25000E+00 -0.50000E+00  0.00000E+00  0.00000E+00  0.00000E+00    0.12795E+02  0.30063E+02 -0.42858E+02 -0.39162E+01 -0.36057E+01 -0.75246E+01      982.00
  0.49467E+00  0.68112E+02    0.26250E+00  0.26250E+00 -0.52500E+00  0.00000E+00  0.00000E+00  0.00000E+00    0.12894E+02  0.30110E+02 -0.43004E+02 -0.39160E+01 -0.36160E+01 -0.75435E+01      982.00
  0.51834E+00  0.68331E+02    0.27500E+00  0.27500E+00 -0.55000E+00  0.00000E+00  0.00000E+00  0.00000E+00    0.13007E+02  0.30152E+02 -0.43160E+02 -0.39162E+01 -0.36301E+01 -0.75715E+01      982.00
  0.54203E+00  0.68532E+02    0.28750E+00  0.28750E+00 -0.57500E+00  0.00000E+00  0.00000E+00  0.00000E+00    0.13120E+02  0.30184E+02 -0.43304E+02 -0.39144E+01 -0.36441E+01 -0.75996E+01      982.00
  0.56573E+00  0.68711E+02    0.30000E+00  0.30000E+00 -0.60000E+00  0.00000E+00  0.00000E+00  0.00000E+00    0.13220E+02  0.30213E+02 -0.43432E+02 -0.39120E+01 -0.36495E+01 -0.76235E+01      982.00
  0.58943E+00  0.68879E+02    0.31250E+00  0.31250E+00 -0.62500E+00  0.00000E+00  0.00000E+00  0.00000E+00    0.13328E+02  0.30227E+02 -0.43556E+02 -0.39073E+01 -0.36606E+01 -0.76516E+01      982.00
  0.61314E+00  0.69022E+02    0.32500E+00  0.32500E+00 -0.65000E+00  0.00000E+00  0.00000E+00  0.00000E+00    0.13428E+02  0.30234E+02 -0.43662E+02 -0.39014E+01 -0.36699E+01 -0.76771E+01      982.00
  0.63686E+00  0.69162E+02    0.33750E+00  0.33750E+00 -0.67500E+00  0.00000E+00  0.00000E+00  0.00000E+00    0.13534E+02  0.30233E+02 -0.43767E+02 -0.38948E+01 -0.36796E+01 -0.77054E+01      982.00
  0.66060E+00  0.69290E+02    0.35000E+00  0.35000E+00 -0.70000E+00  0.00000E+00  0.00000E+00  0.00000E+00    0.13639E+02  0.30225E+02 -0.43864E+02 -0.38875E+01 -0.36884E+01 -0.77337E+01      982.00
  0.68434E+00  0.69405E+02    0.36250E+00  0.36250E+00 -0.72500E+00  0.00000E+00  0.00000E+00  0.00000E+00    0.13742E+02  0.30211E+02 -0.43953E+02 -0.38798E+01 -0.36960E+01 -0.77623E+01      982.00
  0.70808E+00  0.69509E+02    0.37500E+00  0.37500E+00 -0.75000E+00  0.00000E+00  0.00000E+00  0.00000E+00    0.13842E+02  0.30192E+02 -0.44034E+02 -0.38718E+01 -0.37026E+01 -0.77913E+01      982.00
  0.73184E+00  0.69603E+02    0.38750E+00  0.38750E+00 -0.77500E+00  0.00000E+00  0.00000E+00  0.00000E+00    0.13941E+02  0.30168E+02 -0.44109E+02 -0.38634E+01 -0.37082E+01 -0.78207E+01      982.00
  0.75560E+00  0.69688E+02    0.40000E+00  0.40000E+00 -0.80000E+00  0.00000E+00  0.00000E+00  0.00000E+00    0.14038E+02  0.30139E+02 -0.44177E+02 -0.38550E+01 -0.37129E+01 -0.78506E+01      982.00
  0.77938E+00  0.69764E+02    0.41250E+00  0.41250E+00 -0.82500E+00  0.00000E+00  0.00000E+00  0.00000E+00    0.14133E+02  0.30106E+02 -0.44239E+02 -0.38464E+01 -0.37169E+01 -0.78809E+01      982.00
  0.80316E+00  0.69825E+02    0.42500E+00  0.42500E+00 -0.85000E+00  0.00000E+00  0.00000E+00  0.00000E+00    0.14228E+02  0.30064E+02 -0.44292E+02 -0.38303E+01 -0.37271E+01 -0.79134E+01      982.00
  0.82694E+00  0.69894E+02    0.43750E+00  0.43750E+00 -0.87500E+00  0.00000E+00  0.00000E+00  0.00000E+00    0.14317E+02  0.30031E+02 -0.44348E+02 -0.38288E+01 -0.37233E+01 -0.79429E+01      982.00
  0.85074E+00  0.69943E+02    0.45000E+00  0.45000E+00 -0.90000E+00  0.00000E+00  0.00000E+00  0.00000E+00    0.14407E+02  0.29984E+02 -0.44392E+02 -0.38121E+01 -0.37312E+01 -0.79757E+01      982.00
  0.87454E+00  0.69944E+02    0.46250E+00  0.46250E+00 -0.92500E+00  0.00000E+00  0.00000E+00  0.00000E+00    0.14487E+02  0.29920E+02 -0.44407E+02 -0.37947E+01 -0.37152E+01 -0.79997E+01      982.00
  0.89835E+00  0.69936E+02    0.47500E+00  0.47500E+00 -0.95000E+00  0.00000E+00  0.00000E+00  0.00000E+00    0.14565E+02  0.29851E+02 -0.44416E+02 -0.37731E+01 -0.37054E+01 -0.80232E+01      982.00
  0.92216E+00  0.69927E+02    0.48750E+00  0.48750E+00 -0.97500E+00  0.00000E+00  0.00000E+00  0.00000E+00    0.14658E+02  0.29769E+02 -0.44428E+02 -0.37525E+01 -0.36924E+01 -0.80487E+01      982.00
  0.94599E+00  0.69921E+02    0.50000E+00  0.50000E+00 -0.10000E+01  0.00000E+00  0.00000E+00  0.00000E+00    0.14720E+02  0.29714E+02 -0.44434E+02 -0.37334E+01 -0.36872E+01 -0.80699E+01      982.00
