          Evm          Svm            E11          E22          E33          E23          E13          E12         SDEV11       SDEV22       SDEV33       SDEV23       SDEV13       SDEV12      TEMP
  0.00000E+00  0.66043E+02    0.00000E+00  0.00000E+00  0.00000E+00  0.00000E+00  0.00000E+00  0.00000E+00    0.20396E+02  0.22433E+02 -0.42829E+02 -0.11257E+01 -0.46300E+01 -0.73771E+01      982.00
  0.24319E-01  0.65867E+02    0.12500E-01  0.12500E-01 -0.25000E-01  0.00000E+00  0.00000E+00  0.00000E+00    0.20055E+02  0.22722E+02 -0.42777E+02 -0.11764E+01 -0.44561E+01 -0.71232E+01      982.00
  0.48673E-01  0.65685E+02    0.25000E-01  0.25000E-01 -0.50000E-01  0.00000E+00  0.00000E+00  0.00000E+00    0.19784E+02  0.22954E+02 -0.42738E+02 -0.12517E+01 -0.42768E+01 -0.67730E+01      982.00
  0.73072E-01  0.65545E+02    0.37500E-01  0.37500E-01 -0.75000E-01  0.00000E+00  0.00000E+00  0.00000E+00    0.19565E+02  0.23163E+02 -0.42728E+02 -0.14110E+01 -0.41061E+01 -0.63777E+01      982.00
  0.97518E-01  0.65481E+02    0.50000E-01  0.50000E-01 -0.10000E+00  0.00000E+00  0.00000E+00  0.00000E+00    0.19401E+02  0.23350E+02 -0.42751E+02 -0.16420E+01 -0.39787E+01 -0.60087E+01      982.00
  0.12200E+00  0.65498E+02    0.62500E-01  0.62500E-01 -0.12500E+00  0.00000E+00  0.00000E+00  0.00000E+00    0.19264E+02  0.23539E+02 -0.42804E+02 -0.19081E+01 -0.38919E+01 -0.57024E+01      982.00
  0.14651E+00  0.65580E+02    0.75000E-01  0.75000E-01 -0.15000E+00  0.00000E+00  0.00000E+00  0.00000E+00    0.19162E+02  0.23717E+02 -0.42878E+02 -0.21624E+01 -0.38461E+01 -0.54771E+01      982.00
  0.17103E+00  0.65711E+02    0.87500E-01  0.87500E-01 -0.17500E+00  0.00000E+00  0.00000E+00  0.00000E+00    0.19076E+02  0.23893E+02 -0.42969E+02 -0.23867E+01 -0.38285E+01 -0.53283E+01      982.00
  0.19555E+00  0.65882E+02    0.10000E+00  0.10000E+00 -0.20000E+00  0.00000E+00  0.00000E+00  0.00000E+00    0.18992E+02  0.24083E+02 -0.43075E+02 -0.25757E+01 -0.38263E+01 -0.52409E+01      982.00
  0.22007E+00  0.66085E+02    0.11250E+00  0.11250E+00 -0.22500E+00  0.00000E+00  0.00000E+00  0.00000E+00    0.18919E+02  0.24274E+02 -0.43193E+02 -0.27260E+01 -0.38399E+01 -0.52108E+01      982.00
  0.24458E+00  0.66307E+02    0.12500E+00  0.12500E+00 -0.25000E+00  0.00000E+00  0.00000E+00  0.00000E+00    0.18838E+02  0.24481E+02 -0.43319E+02 -0.28447E+01 -0.38564E+01 -0.52156E+01      982.00
  0.26908E+00  0.66546E+02    0.13750E+00  0.13750E+00 -0.27500E+00  0.00000E+00  0.00000E+00  0.00000E+00    0.18763E+02  0.24689E+02 -0.43452E+02 -0.29342E+01 -0.38829E+01 -0.52554E+01      982.00
  0.29356E+00  0.66787E+02    0.15000E+00  0.15000E+00 -0.30000E+00  0.00000E+00  0.00000E+00  0.00000E+00    0.18676E+02  0.24908E+02 -0.43584E+02 -0.30017E+01 -0.39058E+01 -0.53092E+01      982.00
  0.31803E+00  0.67034E+02    0.16250E+00  0.16250E+00 -0.32500E+00  0.00000E+00  0.00000E+00  0.00000E+00    0.18594E+02  0.25124E+02 -0.43718E+02 -0.30496E+01 -0.39364E+01 -0.53802E+01      982.00
  0.34249E+00  0.67276E+02    0.17500E+00  0.17500E+00 -0.35000E+00  0.00000E+00  0.00000E+00  0.00000E+00    0.18509E+02  0.25339E+02 -0.43848E+02 -0.30827E+01 -0.39678E+01 -0.54569E+01      982.00
  0.36693E+00  0.67504E+02    0.18750E+00  0.18750E+00 -0.37500E+00  0.00000E+00  0.00000E+00  0.00000E+00    0.18415E+02  0.25555E+02 -0.43970E+02 -0.31052E+01 -0.39919E+01 -0.55295E+01      982.00
  0.39136E+00  0.67726E+02    0.20000E+00  0.20000E+00 -0.40000E+00  0.00000E+00  0.00000E+00  0.00000E+00    0.18322E+02  0.25765E+02 -0.44087E+02 -0.31184E+01 -0.40232E+01 -0.56064E+01      982.00
  0.41577E+00  0.67934E+02    0.21250E+00  0.21250E+00 -0.42500E+00  0.00000E+00  0.00000E+00  0.00000E+00    0.18226E+02  0.25969E+02 -0.44195E+02 -0.31249E+01 -0.40540E+01 -0.56795E+01      982.00
  0.44016E+00  0.68128E+02    0.22500E+00  0.22500E+00 -0.45000E+00  0.00000E+00  0.00000E+00  0.00000E+00    0.18126E+02  0.26168E+02 -0.44294E+02 -0.31263E+01 -0.40841E+01 -0.57474E+01      982.00
  0.46455E+00  0.68306E+02    0.23750E+00  0.23750E+00 -0.47500E+00  0.00000E+00  0.00000E+00  0.00000E+00    0.18023E+02  0.26361E+02 -0.44384E+02 -0.31239E+01 -0.41132E+01 -0.58095E+01      982.00
  0.48891E+00  0.68463E+02    0.25000E+00  0.25000E+00 -0.50000E+00  0.00000E+00  0.00000E+00  0.00000E+00    0.17910E+02  0.26551E+02 -0.44461E+02 -0.31222E+01 -0.41309E+01 -0.58611E+01      982.00
  0.51327E+00  0.68615E+02    0.26250E+00  0.26250E+00 -0.52500E+00  0.00000E+00  0.00000E+00  0.00000E+00    0.17802E+02  0.26732E+02 -0.44534E+02 -0.31151E+01 -0.41581E+01 -0.59109E+01      982.00
  0.53760E+00  0.68752E+02    0.27500E+00  0.27500E+00 -0.55000E+00  0.00000E+00  0.00000E+00  0.00000E+00    0.17693E+02  0.26906E+02 -0.44599E+02 -0.31061E+01 -0.41844E+01 -0.59549E+01      982.00
  0.56193E+00  0.68877E+02    0.28750E+00  0.28750E+00 -0.57500E+00  0.00000E+00  0.00000E+00  0.00000E+00    0.17582E+02  0.27073E+02 -0.44656E+02 -0.30959E+01 -0.42096E+01 -0.59932E+01      982.00
  0.58624E+00  0.68990E+02    0.30000E+00  0.30000E+00 -0.60000E+00  0.00000E+00  0.00000E+00  0.00000E+00    0.17470E+02  0.27236E+02 -0.44706E+02 -0.30848E+01 -0.42338E+01 -0.60261E+01      982.00
  0.61054E+00  0.69093E+02    0.31250E+00  0.31250E+00 -0.62500E+00  0.00000E+00  0.00000E+00  0.00000E+00    0.17357E+02  0.27392E+02 -0.44749E+02 -0.30730E+01 -0.42568E+01 -0.60540E+01      982.00
  0.63483E+00  0.69186E+02    0.32500E+00  0.32500E+00 -0.65000E+00  0.00000E+00  0.00000E+00  0.00000E+00    0.17244E+02  0.27544E+02 -0.44787E+02 -0.30606E+01 -0.42788E+01 -0.60774E+01      982.00
  0.65911E+00  0.69269E+02    0.33750E+00  0.33750E+00 -0.67500E+00  0.00000E+00  0.00000E+00  0.00000E+00    0.17127E+02  0.27693E+02 -0.44821E+02 -0.30526E+01 -0.42871E+01 -0.60912E+01      982.00
  0.68337E+00  0.69346E+02    0.35000E+00  0.35000E+00 -0.70000E+00  0.00000E+00  0.00000E+00  0.00000E+00    0.17014E+02  0.27835E+02 -0.44849E+02 -0.30396E+01 -0.43074E+01 -0.61066E+01      982.00
  0.70762E+00  0.69415E+02    0.36250E+00  0.36250E+00 -0.72500E+00  0.00000E+00  0.00000E+00  0.00000E+00    0.16903E+02  0.27971E+02 -0.44873E+02 -0.30260E+01 -0.43269E+01 -0.61188E+01      982.00
  0.73187E+00  0.69477E+02    0.37500E+00  0.37500E+00 -0.75000E+00  0.00000E+00  0.00000E+00  0.00000E+00    0.16792E+02  0.28102E+02 -0.44893E+02 -0.30121E+01 -0.43455E+01 -0.61279E+01      982.00
  0.75610E+00  0.69534E+02    0.38750E+00  0.38750E+00 -0.77500E+00  0.00000E+00  0.00000E+00  0.00000E+00    0.16682E+02  0.28228E+02 -0.44910E+02 -0.29980E+01 -0.43632E+01 -0.61342E+01      982.00
  0.78032E+00  0.69585E+02    0.40000E+00  0.40000E+00 -0.80000E+00  0.00000E+00  0.00000E+00  0.00000E+00    0.16573E+02  0.28350E+02 -0.44923E+02 -0.29837E+01 -0.43801E+01 -0.61379E+01      982.00
  0.80453E+00  0.69631E+02    0.41250E+00  0.41250E+00 -0.82500E+00  0.00000E+00  0.00000E+00  0.00000E+00    0.16466E+02  0.28468E+02 -0.44934E+02 -0.29692E+01 -0.43961E+01 -0.61393E+01      982.00
  0.82873E+00  0.69677E+02    0.42500E+00  0.42500E+00 -0.85000E+00  0.00000E+00  0.00000E+00  0.00000E+00    0.16356E+02  0.28590E+02 -0.44946E+02 -0.29561E+01 -0.44021E+01 -0.61331E+01      982.00
  0.85292E+00  0.69714E+02    0.43750E+00  0.43750E+00 -0.87500E+00  0.00000E+00  0.00000E+00  0.00000E+00    0.16252E+02  0.28701E+02 -0.44952E+02 -0.29413E+01 -0.44165E+01 -0.61306E+01      982.00
  0.87710E+00  0.69748E+02    0.45000E+00  0.45000E+00 -0.90000E+00  0.00000E+00  0.00000E+00  0.00000E+00    0.16151E+02  0.28806E+02 -0.44957E+02 -0.29262E+01 -0.44309E+01 -0.61267E+01      982.00
  0.90127E+00  0.69779E+02    0.46250E+00  0.46250E+00 -0.92500E+00  0.00000E+00  0.00000E+00  0.00000E+00    0.16052E+02  0.28908E+02 -0.44960E+02 -0.29110E+01 -0.44446E+01 -0.61213E+01      982.00
  0.92543E+00  0.69757E+02    0.47500E+00  0.47500E+00 -0.95000E+00  0.00000E+00  0.00000E+00  0.00000E+00    0.15954E+02  0.28978E+02 -0.44933E+02 -0.28807E+01 -0.44459E+01 -0.61099E+01      982.00
  0.94958E+00  0.69735E+02    0.48750E+00  0.48750E+00 -0.97500E+00  0.00000E+00  0.00000E+00  0.00000E+00    0.15860E+02  0.29046E+02 -0.44906E+02 -0.28564E+01 -0.44470E+01 -0.60959E+01      982.00
  0.97373E+00  0.69713E+02    0.50000E+00  0.50000E+00 -0.10000E+01  0.00000E+00  0.00000E+00  0.00000E+00    0.15750E+02  0.29130E+02 -0.44879E+02 -0.28261E+01 -0.44411E+01 -0.60734E+01      982.00
