          Evm          Svm            E11          E22          E33          E23          E13          E12         SDEV11       SDEV22       SDEV33       SDEV23       SDEV13       SDEV12      TEMP
  0.00000E+00  0.51958E+02    0.00000E+00  0.00000E+00  0.00000E+00  0.00000E+00  0.00000E+00  0.00000E+00    0.20722E+02  0.12382E+02 -0.33104E+02  0.64986E+01  0.25552E+01 -0.34402E+01      982.00
  0.23892E-01  0.52124E+02    0.12500E-01  0.12500E-01 -0.25000E-01  0.00000E+00  0.00000E+00  0.00000E+00    0.20885E+02  0.12310E+02 -0.33195E+02  0.65304E+01  0.24065E+01 -0.35174E+01      982.00
  0.47774E-01  0.52324E+02    0.25000E-01  0.25000E-01 -0.50000E-01  0.00000E+00  0.00000E+00  0.00000E+00    0.21050E+02  0.12264E+02 -0.33314E+02  0.65371E+01  0.22813E+01 -0.36044E+01      982.00
  0.71650E-01  0.52584E+02    0.37500E-01  0.37500E-01 -0.75000E-01  0.00000E+00  0.00000E+00  0.00000E+00    0.21236E+02  0.12231E+02 -0.33467E+02  0.65549E+01  0.21631E+01 -0.37073E+01      982.00
  0.95517E-01  0.52913E+02    0.50000E-01  0.50000E-01 -0.10000E+00  0.00000E+00  0.00000E+00  0.00000E+00    0.21448E+02  0.12211E+02 -0.33658E+02  0.65894E+01  0.20499E+01 -0.38262E+01      982.00
  0.11937E+00  0.53317E+02    0.62500E-01  0.62500E-01 -0.12500E+00  0.00000E+00  0.00000E+00  0.00000E+00    0.21688E+02  0.12203E+02 -0.33891E+02  0.66446E+01  0.19450E+01 -0.39591E+01      982.00
  0.14321E+00  0.53792E+02    0.75000E-01  0.75000E-01 -0.15000E+00  0.00000E+00  0.00000E+00  0.00000E+00    0.21956E+02  0.12208E+02 -0.34164E+02  0.67195E+01  0.18475E+01 -0.41016E+01      982.00
  0.16702E+00  0.54331E+02    0.87500E-01  0.87500E-01 -0.17500E+00  0.00000E+00  0.00000E+00  0.00000E+00    0.22249E+02  0.12224E+02 -0.34474E+02  0.68110E+01  0.17574E+01 -0.42473E+01      982.00
  0.19082E+00  0.54923E+02    0.10000E+00  0.10000E+00 -0.20000E+00  0.00000E+00  0.00000E+00  0.00000E+00    0.22564E+02  0.12250E+02 -0.34814E+02  0.69159E+01  0.16714E+01 -0.43912E+01      982.00
  0.21459E+00  0.55548E+02    0.11250E+00  0.11250E+00 -0.22500E+00  0.00000E+00  0.00000E+00  0.00000E+00    0.22892E+02  0.12284E+02 -0.35176E+02  0.70276E+01  0.15961E+01 -0.45223E+01      982.00
  0.23834E+00  0.56197E+02    0.12500E+00  0.12500E+00 -0.25000E+00  0.00000E+00  0.00000E+00  0.00000E+00    0.23230E+02  0.12325E+02 -0.35555E+02  0.71416E+01  0.15238E+01 -0.46378E+01      982.00
  0.26206E+00  0.56851E+02    0.13750E+00  0.13750E+00 -0.27500E+00  0.00000E+00  0.00000E+00  0.00000E+00    0.23571E+02  0.12371E+02 -0.35942E+02  0.72530E+01  0.14571E+01 -0.47306E+01      982.00
  0.28577E+00  0.57497E+02    0.15000E+00  0.15000E+00 -0.30000E+00  0.00000E+00  0.00000E+00  0.00000E+00    0.23909E+02  0.12420E+02 -0.36329E+02  0.73600E+01  0.13960E+01 -0.47969E+01      982.00
  0.30946E+00  0.58125E+02    0.16250E+00  0.16250E+00 -0.32500E+00  0.00000E+00  0.00000E+00  0.00000E+00    0.24239E+02  0.12470E+02 -0.36709E+02  0.74630E+01  0.13403E+01 -0.48344E+01      982.00
  0.33315E+00  0.58730E+02    0.17500E+00  0.17500E+00 -0.35000E+00  0.00000E+00  0.00000E+00  0.00000E+00    0.24561E+02  0.12518E+02 -0.37080E+02  0.75633E+01  0.12894E+01 -0.48420E+01      982.00
  0.35682E+00  0.59313E+02    0.18750E+00  0.18750E+00 -0.37500E+00  0.00000E+00  0.00000E+00  0.00000E+00    0.24875E+02  0.12569E+02 -0.37444E+02  0.76465E+01  0.12509E+01 -0.48232E+01      982.00
  0.38050E+00  0.59866E+02    0.20000E+00  0.20000E+00 -0.40000E+00  0.00000E+00  0.00000E+00  0.00000E+00    0.25174E+02  0.12621E+02 -0.37795E+02  0.77194E+01  0.12156E+01 -0.47793E+01      982.00
  0.40417E+00  0.60387E+02    0.21250E+00  0.21250E+00 -0.42500E+00  0.00000E+00  0.00000E+00  0.00000E+00    0.25459E+02  0.12673E+02 -0.38131E+02  0.77820E+01  0.11818E+01 -0.47130E+01      982.00
  0.42785E+00  0.60862E+02    0.22500E+00  0.22500E+00 -0.45000E+00  0.00000E+00  0.00000E+00  0.00000E+00    0.25720E+02  0.12726E+02 -0.38446E+02  0.78225E+01  0.11510E+01 -0.46318E+01      982.00
  0.45154E+00  0.61321E+02    0.23750E+00  0.23750E+00 -0.47500E+00  0.00000E+00  0.00000E+00  0.00000E+00    0.25973E+02  0.12779E+02 -0.38752E+02  0.78669E+01  0.11182E+01 -0.45303E+01      982.00
  0.47524E+00  0.61750E+02    0.25000E+00  0.25000E+00 -0.50000E+00  0.00000E+00  0.00000E+00  0.00000E+00    0.26210E+02  0.12831E+02 -0.39041E+02  0.79028E+01  0.10855E+01 -0.44137E+01      982.00
  0.49895E+00  0.62148E+02    0.26250E+00  0.26250E+00 -0.52500E+00  0.00000E+00  0.00000E+00  0.00000E+00    0.26430E+02  0.12884E+02 -0.39315E+02  0.79306E+01  0.10526E+01 -0.42846E+01      982.00
  0.52267E+00  0.62518E+02    0.27500E+00  0.27500E+00 -0.55000E+00  0.00000E+00  0.00000E+00  0.00000E+00    0.26635E+02  0.12938E+02 -0.39573E+02  0.79510E+01  0.10195E+01 -0.41451E+01      982.00
  0.54640E+00  0.62861E+02    0.28750E+00  0.28750E+00 -0.57500E+00  0.00000E+00  0.00000E+00  0.00000E+00    0.26824E+02  0.12991E+02 -0.39816E+02  0.79649E+01  0.98618E+00 -0.39970E+01      982.00
  0.57016E+00  0.63179E+02    0.30000E+00  0.30000E+00 -0.60000E+00  0.00000E+00  0.00000E+00  0.00000E+00    0.26999E+02  0.13045E+02 -0.40044E+02  0.79731E+01  0.95244E+00 -0.38416E+01      982.00
  0.59392E+00  0.63465E+02    0.31250E+00  0.31250E+00 -0.62500E+00  0.00000E+00  0.00000E+00  0.00000E+00    0.27155E+02  0.13097E+02 -0.40252E+02  0.79822E+01  0.92208E+00 -0.36650E+01      982.00
  0.61771E+00  0.63740E+02    0.32500E+00  0.32500E+00 -0.65000E+00  0.00000E+00  0.00000E+00  0.00000E+00    0.27302E+02  0.13153E+02 -0.40455E+02  0.79809E+01  0.88934E+00 -0.35004E+01      982.00
  0.64151E+00  0.63994E+02    0.33750E+00  0.33750E+00 -0.67500E+00  0.00000E+00  0.00000E+00  0.00000E+00    0.27437E+02  0.13208E+02 -0.40645E+02  0.79756E+01  0.85567E+00 -0.33335E+01      982.00
  0.66533E+00  0.64230E+02    0.35000E+00  0.35000E+00 -0.70000E+00  0.00000E+00  0.00000E+00  0.00000E+00    0.27560E+02  0.13263E+02 -0.40823E+02  0.79673E+01  0.82176E+00 -0.31645E+01      982.00
  0.68916E+00  0.64449E+02    0.36250E+00  0.36250E+00 -0.72500E+00  0.00000E+00  0.00000E+00  0.00000E+00    0.27671E+02  0.13319E+02 -0.40990E+02  0.79565E+01  0.78782E+00 -0.29942E+01      982.00
  0.71301E+00  0.64651E+02    0.37500E+00  0.37500E+00 -0.75000E+00  0.00000E+00  0.00000E+00  0.00000E+00    0.27772E+02  0.13374E+02 -0.41147E+02  0.79439E+01  0.75395E+00 -0.28231E+01      982.00
  0.73688E+00  0.64836E+02    0.38750E+00  0.38750E+00 -0.77500E+00  0.00000E+00  0.00000E+00  0.00000E+00    0.27861E+02  0.13430E+02 -0.41291E+02  0.79326E+01  0.72457E+00 -0.26496E+01      982.00
  0.76076E+00  0.65011E+02    0.40000E+00  0.40000E+00 -0.80000E+00  0.00000E+00  0.00000E+00  0.00000E+00    0.27943E+02  0.13486E+02 -0.41429E+02  0.79175E+01  0.69175E+00 -0.24783E+01      982.00
  0.78466E+00  0.65170E+02    0.41250E+00  0.41250E+00 -0.82500E+00  0.00000E+00  0.00000E+00  0.00000E+00    0.28015E+02  0.13542E+02 -0.41557E+02  0.79033E+01  0.65801E+00 -0.22797E+01      982.00
  0.80857E+00  0.65321E+02    0.42500E+00  0.42500E+00 -0.85000E+00  0.00000E+00  0.00000E+00  0.00000E+00    0.28079E+02  0.13599E+02 -0.41678E+02  0.78867E+01  0.62600E+00 -0.21106E+01      982.00
  0.83250E+00  0.65461E+02    0.43750E+00  0.43750E+00 -0.87500E+00  0.00000E+00  0.00000E+00  0.00000E+00    0.28137E+02  0.13655E+02 -0.41791E+02  0.78693E+01  0.59347E+00 -0.19431E+01      982.00
  0.85644E+00  0.65591E+02    0.45000E+00  0.45000E+00 -0.90000E+00  0.00000E+00  0.00000E+00  0.00000E+00    0.28187E+02  0.13711E+02 -0.41898E+02  0.78520E+01  0.56109E+00 -0.17768E+01      982.00
  0.88039E+00  0.65712E+02    0.46250E+00  0.46250E+00 -0.92500E+00  0.00000E+00  0.00000E+00  0.00000E+00    0.28230E+02  0.13767E+02 -0.41997E+02  0.78348E+01  0.52903E+00 -0.16118E+01      982.00
  0.90436E+00  0.65766E+02    0.47500E+00  0.47500E+00 -0.95000E+00  0.00000E+00  0.00000E+00  0.00000E+00    0.28254E+02  0.13807E+02 -0.42062E+02  0.77605E+01  0.48311E+00 -0.14870E+01      982.00
  0.92834E+00  0.65813E+02    0.48750E+00  0.48750E+00 -0.97500E+00  0.00000E+00  0.00000E+00  0.00000E+00    0.28267E+02  0.13851E+02 -0.42118E+02  0.77062E+01  0.44888E+00 -0.13366E+01      982.00
  0.95234E+00  0.65857E+02    0.50000E+00  0.50000E+00 -0.10000E+01  0.00000E+00  0.00000E+00  0.00000E+00    0.28276E+02  0.13895E+02 -0.42171E+02  0.76556E+01  0.41631E+00 -0.11868E+01      982.00
