          Evm          Svm            E11          E22          E33          E23          E13          E12         SDEV11       SDEV22       SDEV33       SDEV23       SDEV13       SDEV12      TEMP
  0.00000E+00  0.52487E+02    0.00000E+00  0.00000E+00  0.00000E+00  0.00000E+00  0.00000E+00  0.00000E+00    0.18800E+02  0.13695E+02 -0.32495E+02  0.67916E+01 -0.62670E+01  0.58693E+01      982.00
  0.23216E-01  0.51904E+02    0.12500E-01  0.12500E-01 -0.25000E-01  0.00000E+00  0.00000E+00  0.00000E+00    0.18411E+02  0.13787E+02 -0.32199E+02  0.66431E+01 -0.62441E+01  0.56560E+01      982.00
  0.46479E-01  0.51354E+02    0.25000E-01  0.25000E-01 -0.50000E-01  0.00000E+00  0.00000E+00  0.00000E+00    0.18021E+02  0.13900E+02 -0.31921E+02  0.65090E+01 -0.62303E+01  0.54272E+01      982.00
  0.69788E-01  0.50824E+02    0.37500E-01  0.37500E-01 -0.75000E-01  0.00000E+00  0.00000E+00  0.00000E+00    0.17602E+02  0.14057E+02 -0.31659E+02  0.63750E+01 -0.62170E+01  0.51836E+01      982.00
  0.93148E-01  0.50331E+02    0.50000E-01  0.50000E-01 -0.10000E+00  0.00000E+00  0.00000E+00  0.00000E+00    0.17172E+02  0.14250E+02 -0.31422E+02  0.62451E+01 -0.62069E+01  0.49232E+01      982.00
  0.11656E+00  0.49859E+02    0.62500E-01  0.62500E-01 -0.12500E+00  0.00000E+00  0.00000E+00  0.00000E+00    0.16722E+02  0.14483E+02 -0.31205E+02  0.61055E+01 -0.61912E+01  0.46359E+01      982.00
  0.14003E+00  0.49406E+02    0.75000E-01  0.75000E-01 -0.15000E+00  0.00000E+00  0.00000E+00  0.00000E+00    0.16262E+02  0.14739E+02 -0.31002E+02  0.59572E+01 -0.61733E+01  0.43206E+01      982.00
  0.16356E+00  0.48964E+02    0.87500E-01  0.87500E-01 -0.17500E+00  0.00000E+00  0.00000E+00  0.00000E+00    0.15793E+02  0.15019E+02 -0.30811E+02  0.57845E+01 -0.61514E+01  0.39652E+01      982.00
  0.18716E+00  0.48531E+02    0.10000E+00  0.10000E+00 -0.20000E+00  0.00000E+00  0.00000E+00  0.00000E+00    0.15319E+02  0.15315E+02 -0.30634E+02  0.55719E+01 -0.61251E+01  0.35611E+01      982.00
  0.21083E+00  0.48100E+02    0.11250E+00  0.11250E+00 -0.22500E+00  0.00000E+00  0.00000E+00  0.00000E+00    0.14841E+02  0.15626E+02 -0.30466E+02  0.53041E+01 -0.60951E+01  0.30993E+01      982.00
  0.23458E+00  0.47676E+02    0.12500E+00  0.12500E+00 -0.25000E+00  0.00000E+00  0.00000E+00  0.00000E+00    0.14363E+02  0.15947E+02 -0.30310E+02  0.49589E+01 -0.60666E+01  0.25673E+01      982.00
  0.25842E+00  0.47265E+02    0.13750E+00  0.13750E+00 -0.27500E+00  0.00000E+00  0.00000E+00  0.00000E+00    0.13884E+02  0.16283E+02 -0.30167E+02  0.45167E+01 -0.60399E+01  0.19558E+01      982.00
  0.28236E+00  0.46900E+02    0.15000E+00  0.15000E+00 -0.30000E+00  0.00000E+00  0.00000E+00  0.00000E+00    0.13403E+02  0.16644E+02 -0.30047E+02  0.39517E+01 -0.60218E+01  0.12510E+01      982.00
  0.30638E+00  0.46610E+02    0.16250E+00  0.16250E+00 -0.32500E+00  0.00000E+00  0.00000E+00  0.00000E+00    0.12916E+02  0.17041E+02 -0.29956E+02  0.32517E+01 -0.60089E+01  0.45003E+00      982.00
  0.33048E+00  0.46454E+02    0.17500E+00  0.17500E+00 -0.35000E+00  0.00000E+00  0.00000E+00  0.00000E+00    0.12419E+02  0.17490E+02 -0.29908E+02  0.24068E+01 -0.60020E+01 -0.44692E+00      982.00
  0.35463E+00  0.46486E+02    0.18750E+00  0.18750E+00 -0.37500E+00  0.00000E+00  0.00000E+00  0.00000E+00    0.11910E+02  0.18003E+02 -0.29913E+02  0.14264E+01 -0.59900E+01 -0.14273E+01      982.00
  0.37876E+00  0.46763E+02    0.20000E+00  0.20000E+00 -0.40000E+00  0.00000E+00  0.00000E+00  0.00000E+00    0.11404E+02  0.18578E+02 -0.29982E+02  0.34316E+00 -0.59758E+01 -0.24650E+01      982.00
  0.40280E+00  0.47301E+02    0.21250E+00  0.21250E+00 -0.42500E+00  0.00000E+00  0.00000E+00  0.00000E+00    0.10942E+02  0.19175E+02 -0.30117E+02 -0.77983E+00 -0.59678E+01 -0.35133E+01      982.00
  0.42667E+00  0.48043E+02    0.22500E+00  0.22500E+00 -0.45000E+00  0.00000E+00  0.00000E+00  0.00000E+00    0.10581E+02  0.19726E+02 -0.30306E+02 -0.18565E+01 -0.59865E+01 -0.45095E+01      982.00
  0.45033E+00  0.48899E+02    0.23750E+00  0.23750E+00 -0.47500E+00  0.00000E+00  0.00000E+00  0.00000E+00    0.10357E+02  0.20180E+02 -0.30536E+02 -0.28159E+01 -0.60370E+01 -0.54022E+01      982.00
  0.47375E+00  0.49802E+02    0.25000E+00  0.25000E+00 -0.50000E+00  0.00000E+00  0.00000E+00  0.00000E+00    0.10273E+02  0.20531E+02 -0.30804E+02 -0.36348E+01 -0.61185E+01 -0.61745E+01      982.00
  0.49694E+00  0.50717E+02    0.26250E+00  0.26250E+00 -0.52500E+00  0.00000E+00  0.00000E+00  0.00000E+00    0.10302E+02  0.20804E+02 -0.31106E+02 -0.43299E+01 -0.62163E+01 -0.68371E+01      982.00
  0.51994E+00  0.51637E+02    0.27500E+00  0.27500E+00 -0.55000E+00  0.00000E+00  0.00000E+00  0.00000E+00    0.10427E+02  0.21019E+02 -0.31447E+02 -0.49240E+01 -0.63220E+01 -0.74069E+01      982.00
  0.54278E+00  0.52553E+02    0.28750E+00  0.28750E+00 -0.57500E+00  0.00000E+00  0.00000E+00  0.00000E+00    0.10625E+02  0.21196E+02 -0.31820E+02 -0.54389E+01 -0.64239E+01 -0.79011E+01      982.00
  0.56549E+00  0.53460E+02    0.30000E+00  0.30000E+00 -0.60000E+00  0.00000E+00  0.00000E+00  0.00000E+00    0.10884E+02  0.21339E+02 -0.32222E+02 -0.58900E+01 -0.65162E+01 -0.83353E+01      982.00
  0.58809E+00  0.54387E+02    0.31250E+00  0.31250E+00 -0.62500E+00  0.00000E+00  0.00000E+00  0.00000E+00    0.11199E+02  0.21456E+02 -0.32655E+02 -0.63108E+01 -0.66092E+01 -0.87404E+01      982.00
  0.61060E+00  0.55343E+02    0.32500E+00  0.32500E+00 -0.65000E+00  0.00000E+00  0.00000E+00  0.00000E+00    0.11572E+02  0.21536E+02 -0.33108E+02 -0.67226E+01 -0.67222E+01 -0.91456E+01      982.00
  0.63304E+00  0.56235E+02    0.33750E+00  0.33750E+00 -0.67500E+00  0.00000E+00  0.00000E+00  0.00000E+00    0.11970E+02  0.21576E+02 -0.33546E+02 -0.70773E+01 -0.68022E+01 -0.95247E+01      982.00
  0.65541E+00  0.56906E+02    0.35000E+00  0.35000E+00 -0.70000E+00  0.00000E+00  0.00000E+00  0.00000E+00    0.12330E+02  0.21615E+02 -0.33945E+02 -0.72391E+01 -0.67441E+01 -0.97883E+01      982.00
  0.67778E+00  0.57409E+02    0.36250E+00  0.36250E+00 -0.72500E+00  0.00000E+00  0.00000E+00  0.00000E+00    0.12650E+02  0.21677E+02 -0.34327E+02 -0.72262E+01 -0.65713E+01 -0.99521E+01      982.00
  0.70020E+00  0.57803E+02    0.37500E+00  0.37500E+00 -0.75000E+00  0.00000E+00  0.00000E+00  0.00000E+00    0.12932E+02  0.21758E+02 -0.34691E+02 -0.71011E+01 -0.63227E+01 -0.10064E+02      982.00
  0.72271E+00  0.58123E+02    0.38750E+00  0.38750E+00 -0.77500E+00  0.00000E+00  0.00000E+00  0.00000E+00    0.13191E+02  0.21836E+02 -0.35027E+02 -0.69080E+01 -0.60428E+01 -0.10150E+02      982.00
  0.74530E+00  0.58407E+02    0.40000E+00  0.40000E+00 -0.80000E+00  0.00000E+00  0.00000E+00  0.00000E+00    0.13435E+02  0.21908E+02 -0.35342E+02 -0.66850E+01 -0.57493E+01 -0.10229E+02      982.00
  0.76800E+00  0.58684E+02    0.41250E+00  0.41250E+00 -0.82500E+00  0.00000E+00  0.00000E+00  0.00000E+00    0.13681E+02  0.21961E+02 -0.35642E+02 -0.64593E+01 -0.54706E+01 -0.10314E+02      982.00
  0.79077E+00  0.58953E+02    0.42500E+00  0.42500E+00 -0.85000E+00  0.00000E+00  0.00000E+00  0.00000E+00    0.13924E+02  0.21999E+02 -0.35924E+02 -0.62455E+01 -0.52018E+01 -0.10403E+02      982.00
  0.81362E+00  0.59232E+02    0.43750E+00  0.43750E+00 -0.87500E+00  0.00000E+00  0.00000E+00  0.00000E+00    0.14182E+02  0.22012E+02 -0.36194E+02 -0.60594E+01 -0.49670E+01 -0.10501E+02      982.00
  0.83654E+00  0.59537E+02    0.45000E+00  0.45000E+00 -0.90000E+00  0.00000E+00  0.00000E+00  0.00000E+00    0.14454E+02  0.22008E+02 -0.36463E+02 -0.59081E+01 -0.47647E+01 -0.10608E+02      982.00
  0.85950E+00  0.59850E+02    0.46250E+00  0.46250E+00 -0.92500E+00  0.00000E+00  0.00000E+00  0.00000E+00    0.14739E+02  0.21987E+02 -0.36725E+02 -0.57860E+01 -0.45870E+01 -0.10715E+02      982.00
  0.88251E+00  0.60174E+02    0.47500E+00  0.47500E+00 -0.95000E+00  0.00000E+00  0.00000E+00  0.00000E+00    0.15033E+02  0.21951E+02 -0.36984E+02 -0.56955E+01 -0.44310E+01 -0.10819E+02      982.00
  0.90556E+00  0.60526E+02    0.48750E+00  0.48750E+00 -0.97500E+00  0.00000E+00  0.00000E+00  0.00000E+00    0.15348E+02  0.21905E+02 -0.37253E+02 -0.56351E+01 -0.43045E+01 -0.10922E+02      982.00
  0.92864E+00  0.60877E+02    0.50000E+00  0.50000E+00 -0.10000E+01  0.00000E+00  0.00000E+00  0.00000E+00    0.15674E+02  0.21842E+02 -0.37515E+02 -0.55972E+01 -0.41982E+01 -0.11015E+02      982.00
