          Evm          Svm            E11          E22          E33          E23          E13          E12         SDEV11       SDEV22       SDEV33       SDEV23       SDEV13       SDEV12      TEMP
  0.00000E+00  0.53453E+02    0.00000E+00  0.00000E+00  0.00000E+00  0.00000E+00  0.00000E+00  0.00000E+00    0.21993E+02  0.11651E+02 -0.33644E+02 -0.87399E+00  0.49355E+01 -0.71827E+01      982.00
  0.23603E-01  0.53878E+02    0.12500E-01  0.12500E-01 -0.25000E-01  0.00000E+00  0.00000E+00  0.00000E+00    0.21672E+02  0.12129E+02 -0.33801E+02  0.11175E+00  0.50968E+01 -0.78728E+01      982.00
  0.47129E-01  0.54308E+02    0.25000E-01  0.25000E-01 -0.50000E-01  0.00000E+00  0.00000E+00  0.00000E+00    0.21204E+02  0.12763E+02 -0.33967E+02  0.11098E+01  0.51488E+01 -0.84990E+01      982.00
  0.70584E-01  0.54708E+02    0.37500E-01  0.37500E-01 -0.75000E-01  0.00000E+00  0.00000E+00  0.00000E+00    0.20708E+02  0.13402E+02 -0.34110E+02  0.19720E+01  0.51807E+01 -0.89992E+01      982.00
  0.93964E-01  0.55094E+02    0.50000E-01  0.50000E-01 -0.10000E+00  0.00000E+00  0.00000E+00  0.00000E+00    0.20321E+02  0.13929E+02 -0.34250E+02  0.25650E+01  0.52626E+01 -0.93533E+01      982.00
  0.11728E+00  0.55481E+02    0.62500E-01  0.62500E-01 -0.12500E+00  0.00000E+00  0.00000E+00  0.00000E+00    0.20064E+02  0.14346E+02 -0.34410E+02  0.29346E+01  0.53764E+01 -0.96065E+01      982.00
  0.14054E+00  0.55872E+02    0.75000E-01  0.75000E-01 -0.15000E+00  0.00000E+00  0.00000E+00  0.00000E+00    0.19922E+02  0.14672E+02 -0.34594E+02  0.31559E+01  0.54908E+01 -0.97961E+01      982.00
  0.16375E+00  0.56269E+02    0.87500E-01  0.87500E-01 -0.17500E+00  0.00000E+00  0.00000E+00  0.00000E+00    0.19873E+02  0.14927E+02 -0.34800E+02  0.32896E+01  0.55884E+01 -0.99488E+01      982.00
  0.18695E+00  0.56678E+02    0.10000E+00  0.10000E+00 -0.20000E+00  0.00000E+00  0.00000E+00  0.00000E+00    0.19888E+02  0.15137E+02 -0.35024E+02  0.33821E+01  0.56611E+01 -0.10082E+02      982.00
  0.21012E+00  0.57094E+02    0.11250E+00  0.11250E+00 -0.22500E+00  0.00000E+00  0.00000E+00  0.00000E+00    0.19955E+02  0.15308E+02 -0.35263E+02  0.34480E+01  0.57118E+01 -0.10201E+02      982.00
  0.23328E+00  0.57525E+02    0.12500E+00  0.12500E+00 -0.25000E+00  0.00000E+00  0.00000E+00  0.00000E+00    0.20070E+02  0.15447E+02 -0.35517E+02  0.34975E+01  0.57418E+01 -0.10315E+02      982.00
  0.25643E+00  0.57980E+02    0.13750E+00  0.13750E+00 -0.27500E+00  0.00000E+00  0.00000E+00  0.00000E+00    0.20223E+02  0.15567E+02 -0.35790E+02  0.35444E+01  0.57541E+01 -0.10429E+02      982.00
  0.27958E+00  0.58453E+02    0.15000E+00  0.15000E+00 -0.30000E+00  0.00000E+00  0.00000E+00  0.00000E+00    0.20410E+02  0.15670E+02 -0.36080E+02  0.35896E+01  0.57474E+01 -0.10538E+02      982.00
  0.30273E+00  0.58914E+02    0.16250E+00  0.16250E+00 -0.32500E+00  0.00000E+00  0.00000E+00  0.00000E+00    0.20608E+02  0.15763E+02 -0.36371E+02  0.36336E+01  0.57230E+01 -0.10629E+02      982.00
  0.32588E+00  0.59384E+02    0.17500E+00  0.17500E+00 -0.35000E+00  0.00000E+00  0.00000E+00  0.00000E+00    0.20820E+02  0.15851E+02 -0.36671E+02  0.36834E+01  0.56891E+01 -0.10716E+02      982.00
  0.34904E+00  0.59853E+02    0.18750E+00  0.18750E+00 -0.37500E+00  0.00000E+00  0.00000E+00  0.00000E+00    0.21041E+02  0.15932E+02 -0.36973E+02  0.37373E+01  0.56470E+01 -0.10794E+02      982.00
  0.37220E+00  0.60312E+02    0.20000E+00  0.20000E+00 -0.40000E+00  0.00000E+00  0.00000E+00  0.00000E+00    0.21267E+02  0.16006E+02 -0.37273E+02  0.37927E+01  0.55967E+01 -0.10860E+02      982.00
  0.39538E+00  0.60778E+02    0.21250E+00  0.21250E+00 -0.42500E+00  0.00000E+00  0.00000E+00  0.00000E+00    0.21501E+02  0.16077E+02 -0.37579E+02  0.38547E+01  0.55438E+01 -0.10920E+02      982.00
  0.41856E+00  0.61238E+02    0.22500E+00  0.22500E+00 -0.45000E+00  0.00000E+00  0.00000E+00  0.00000E+00    0.21740E+02  0.16144E+02 -0.37884E+02  0.39201E+01  0.54872E+01 -0.10970E+02      982.00
  0.44176E+00  0.61690E+02    0.23750E+00  0.23750E+00 -0.47500E+00  0.00000E+00  0.00000E+00  0.00000E+00    0.21980E+02  0.16206E+02 -0.38186E+02  0.39876E+01  0.54273E+01 -0.11010E+02      982.00
  0.46497E+00  0.62113E+02    0.25000E+00  0.25000E+00 -0.50000E+00  0.00000E+00  0.00000E+00  0.00000E+00    0.22203E+02  0.16270E+02 -0.38472E+02  0.40464E+01  0.53732E+01 -0.11040E+02      982.00
  0.48820E+00  0.62544E+02    0.26250E+00  0.26250E+00 -0.52500E+00  0.00000E+00  0.00000E+00  0.00000E+00    0.22443E+02  0.16323E+02 -0.38766E+02  0.41147E+01  0.53095E+01 -0.11060E+02      982.00
  0.51144E+00  0.62962E+02    0.27500E+00  0.27500E+00 -0.55000E+00  0.00000E+00  0.00000E+00  0.00000E+00    0.22682E+02  0.16372E+02 -0.39054E+02  0.41832E+01  0.52433E+01 -0.11069E+02      982.00
  0.53470E+00  0.63365E+02    0.28750E+00  0.28750E+00 -0.57500E+00  0.00000E+00  0.00000E+00  0.00000E+00    0.22918E+02  0.16417E+02 -0.39335E+02  0.42511E+01  0.51751E+01 -0.11068E+02      982.00
  0.55798E+00  0.63753E+02    0.30000E+00  0.30000E+00 -0.60000E+00  0.00000E+00  0.00000E+00  0.00000E+00    0.23151E+02  0.16458E+02 -0.39609E+02  0.43177E+01  0.51050E+01 -0.11057E+02      982.00
  0.58128E+00  0.64125E+02    0.31250E+00  0.31250E+00 -0.62500E+00  0.00000E+00  0.00000E+00  0.00000E+00    0.23379E+02  0.16495E+02 -0.39874E+02  0.43825E+01  0.50333E+01 -0.11036E+02      982.00
  0.60460E+00  0.64477E+02    0.32500E+00  0.32500E+00 -0.65000E+00  0.00000E+00  0.00000E+00  0.00000E+00    0.23599E+02  0.16529E+02 -0.40128E+02  0.44348E+01  0.49679E+01 -0.11010E+02      982.00
  0.62794E+00  0.64817E+02    0.33750E+00  0.33750E+00 -0.67500E+00  0.00000E+00  0.00000E+00  0.00000E+00    0.23820E+02  0.16557E+02 -0.40377E+02  0.44945E+01  0.48944E+01 -0.10971E+02      982.00
  0.65130E+00  0.65142E+02    0.35000E+00  0.35000E+00 -0.70000E+00  0.00000E+00  0.00000E+00  0.00000E+00    0.24036E+02  0.16582E+02 -0.40618E+02  0.45403E+01  0.48231E+01 -0.10926E+02      982.00
  0.67468E+00  0.65450E+02    0.36250E+00  0.36250E+00 -0.72500E+00  0.00000E+00  0.00000E+00  0.00000E+00    0.24248E+02  0.16600E+02 -0.40848E+02  0.45951E+01  0.47482E+01 -0.10872E+02      982.00
  0.69809E+00  0.65742E+02    0.37500E+00  0.37500E+00 -0.75000E+00  0.00000E+00  0.00000E+00  0.00000E+00    0.24454E+02  0.16615E+02 -0.41069E+02  0.46474E+01  0.46726E+01 -0.10811E+02      982.00
  0.72151E+00  0.66019E+02    0.38750E+00  0.38750E+00 -0.77500E+00  0.00000E+00  0.00000E+00  0.00000E+00    0.24656E+02  0.16625E+02 -0.41281E+02  0.46970E+01  0.45967E+01 -0.10743E+02      982.00
  0.74496E+00  0.66280E+02    0.40000E+00  0.40000E+00 -0.80000E+00  0.00000E+00  0.00000E+00  0.00000E+00    0.24852E+02  0.16632E+02 -0.41484E+02  0.47439E+01  0.45207E+01 -0.10669E+02      982.00
  0.76843E+00  0.66527E+02    0.41250E+00  0.41250E+00 -0.82500E+00  0.00000E+00  0.00000E+00  0.00000E+00    0.25044E+02  0.16633E+02 -0.41677E+02  0.47880E+01  0.44448E+01 -0.10590E+02      982.00
  0.79192E+00  0.66759E+02    0.42500E+00  0.42500E+00 -0.85000E+00  0.00000E+00  0.00000E+00  0.00000E+00    0.25231E+02  0.16631E+02 -0.41862E+02  0.48295E+01  0.43693E+01 -0.10505E+02      982.00
  0.81544E+00  0.66978E+02    0.43750E+00  0.43750E+00 -0.87500E+00  0.00000E+00  0.00000E+00  0.00000E+00    0.25414E+02  0.16624E+02 -0.42038E+02  0.48685E+01  0.42943E+01 -0.10416E+02      982.00
  0.83898E+00  0.67184E+02    0.45000E+00  0.45000E+00 -0.90000E+00  0.00000E+00  0.00000E+00  0.00000E+00    0.25592E+02  0.16613E+02 -0.42205E+02  0.49051E+01  0.42201E+01 -0.10322E+02      982.00
  0.86253E+00  0.67377E+02    0.46250E+00  0.46250E+00 -0.92500E+00  0.00000E+00  0.00000E+00  0.00000E+00    0.25767E+02  0.16598E+02 -0.42365E+02  0.49394E+01  0.41468E+01 -0.10225E+02      982.00
  0.88611E+00  0.67562E+02    0.47500E+00  0.47500E+00 -0.95000E+00  0.00000E+00  0.00000E+00  0.00000E+00    0.25948E+02  0.16570E+02 -0.42518E+02  0.49681E+01  0.40779E+01 -0.10120E+02      982.00
  0.90971E+00  0.67665E+02    0.48750E+00  0.48750E+00 -0.97500E+00  0.00000E+00  0.00000E+00  0.00000E+00    0.26075E+02  0.16550E+02 -0.42626E+02  0.49749E+01  0.39854E+01 -0.10007E+02      982.00
  0.93334E+00  0.67766E+02    0.50000E+00  0.50000E+00 -0.10000E+01  0.00000E+00  0.00000E+00  0.00000E+00    0.26209E+02  0.16521E+02 -0.42730E+02  0.49816E+01  0.38998E+01 -0.98912E+01      982.00
