          Evm          Svm            E11          E22          E33          E23          E13          E12         SDEV11       SDEV22       SDEV33       SDEV23       SDEV13       SDEV12      TEMP
  0.00000E+00  0.55235E+02    0.00000E+00  0.00000E+00  0.00000E+00  0.00000E+00  0.00000E+00  0.00000E+00    0.14827E+02  0.18257E+02 -0.33084E+02 -0.37543E+01  0.13348E+01  0.13314E+02      982.00
  0.22461E-01  0.55093E+02    0.12500E-01  0.12500E-01 -0.25000E-01  0.00000E+00  0.00000E+00  0.00000E+00    0.14855E+02  0.18200E+02 -0.33056E+02 -0.34918E+01  0.15989E+01  0.13217E+02      982.00
  0.44961E-01  0.55004E+02    0.25000E-01  0.25000E-01 -0.50000E-01  0.00000E+00  0.00000E+00  0.00000E+00    0.14901E+02  0.18142E+02 -0.33043E+02 -0.32504E+01  0.17976E+01  0.13159E+02      982.00
  0.67489E-01  0.55057E+02    0.37500E-01  0.37500E-01 -0.75000E-01  0.00000E+00  0.00000E+00  0.00000E+00    0.14971E+02  0.18115E+02 -0.33086E+02 -0.30275E+01  0.19491E+01  0.13189E+02      982.00
  0.90024E-01  0.55264E+02    0.50000E-01  0.50000E-01 -0.10000E+00  0.00000E+00  0.00000E+00  0.00000E+00    0.15058E+02  0.18135E+02 -0.33193E+02 -0.28212E+01  0.20703E+01  0.13309E+02      982.00
  0.11255E+00  0.55595E+02    0.62500E-01  0.62500E-01 -0.12500E+00  0.00000E+00  0.00000E+00  0.00000E+00    0.15155E+02  0.18200E+02 -0.33354E+02 -0.26382E+01  0.21664E+01  0.13487E+02      982.00
  0.13505E+00  0.56028E+02    0.75000E-01  0.75000E-01 -0.15000E+00  0.00000E+00  0.00000E+00  0.00000E+00    0.15265E+02  0.18296E+02 -0.33561E+02 -0.24704E+01  0.22465E+01  0.13717E+02      982.00
  0.15751E+00  0.56507E+02    0.87500E-01  0.87500E-01 -0.17500E+00  0.00000E+00  0.00000E+00  0.00000E+00    0.15381E+02  0.18409E+02 -0.33790E+02 -0.23156E+01  0.23104E+01  0.13967E+02      982.00
  0.17993E+00  0.57023E+02    0.10000E+00  0.10000E+00 -0.20000E+00  0.00000E+00  0.00000E+00  0.00000E+00    0.15501E+02  0.18534E+02 -0.34035E+02 -0.21929E+01  0.23611E+01  0.14227E+02      982.00
  0.20231E+00  0.57555E+02    0.11250E+00  0.11250E+00 -0.22500E+00  0.00000E+00  0.00000E+00  0.00000E+00    0.15626E+02  0.18663E+02 -0.34290E+02 -0.20930E+01  0.23983E+01  0.14489E+02      982.00
  0.22466E+00  0.58088E+02    0.12500E+00  0.12500E+00 -0.25000E+00  0.00000E+00  0.00000E+00  0.00000E+00    0.15756E+02  0.18790E+02 -0.34547E+02 -0.20142E+01  0.24226E+01  0.14745E+02      982.00
  0.24696E+00  0.58611E+02    0.13750E+00  0.13750E+00 -0.27500E+00  0.00000E+00  0.00000E+00  0.00000E+00    0.15889E+02  0.18912E+02 -0.34801E+02 -0.19548E+01  0.24344E+01  0.14990E+02      982.00
  0.26922E+00  0.59100E+02    0.15000E+00  0.15000E+00 -0.30000E+00  0.00000E+00  0.00000E+00  0.00000E+00    0.16021E+02  0.19019E+02 -0.35040E+02 -0.18981E+01  0.24350E+01  0.15221E+02      982.00
  0.29146E+00  0.59581E+02    0.16250E+00  0.16250E+00 -0.32500E+00  0.00000E+00  0.00000E+00  0.00000E+00    0.16154E+02  0.19124E+02 -0.35278E+02 -0.18728E+01  0.24235E+01  0.15437E+02      982.00
  0.31366E+00  0.60037E+02    0.17500E+00  0.17500E+00 -0.35000E+00  0.00000E+00  0.00000E+00  0.00000E+00    0.16286E+02  0.19220E+02 -0.35506E+02 -0.18608E+01  0.24019E+01  0.15639E+02      982.00
  0.33584E+00  0.60467E+02    0.18750E+00  0.18750E+00 -0.37500E+00  0.00000E+00  0.00000E+00  0.00000E+00    0.16416E+02  0.19306E+02 -0.35722E+02 -0.18598E+01  0.23714E+01  0.15828E+02      982.00
  0.35799E+00  0.60871E+02    0.20000E+00  0.20000E+00 -0.40000E+00  0.00000E+00  0.00000E+00  0.00000E+00    0.16542E+02  0.19383E+02 -0.35925E+02 -0.18679E+01  0.23331E+01  0.16005E+02      982.00
  0.38013E+00  0.61247E+02    0.21250E+00  0.21250E+00 -0.42500E+00  0.00000E+00  0.00000E+00  0.00000E+00    0.16668E+02  0.19445E+02 -0.36113E+02 -0.18749E+01  0.22850E+01  0.16175E+02      982.00
  0.40224E+00  0.61602E+02    0.22500E+00  0.22500E+00 -0.45000E+00  0.00000E+00  0.00000E+00  0.00000E+00    0.16788E+02  0.19504E+02 -0.36292E+02 -0.18974E+01  0.22344E+01  0.16330E+02      982.00
  0.42433E+00  0.61934E+02    0.23750E+00  0.23750E+00 -0.47500E+00  0.00000E+00  0.00000E+00  0.00000E+00    0.16902E+02  0.19556E+02 -0.36459E+02 -0.19238E+01  0.21804E+01  0.16477E+02      982.00
  0.44640E+00  0.62242E+02    0.25000E+00  0.25000E+00 -0.50000E+00  0.00000E+00  0.00000E+00  0.00000E+00    0.17011E+02  0.19600E+02 -0.36612E+02 -0.19509E+01  0.21248E+01  0.16615E+02      982.00
  0.46846E+00  0.62533E+02    0.26250E+00  0.26250E+00 -0.52500E+00  0.00000E+00  0.00000E+00  0.00000E+00    0.17117E+02  0.19638E+02 -0.36755E+02 -0.19803E+01  0.20688E+01  0.16747E+02      982.00
  0.49050E+00  0.62806E+02    0.27500E+00  0.27500E+00 -0.55000E+00  0.00000E+00  0.00000E+00  0.00000E+00    0.17219E+02  0.19669E+02 -0.36888E+02 -0.20092E+01  0.20143E+01  0.16874E+02      982.00
  0.51253E+00  0.63061E+02    0.28750E+00  0.28750E+00 -0.57500E+00  0.00000E+00  0.00000E+00  0.00000E+00    0.17317E+02  0.19694E+02 -0.37011E+02 -0.20362E+01  0.19627E+01  0.16994E+02      982.00
  0.53454E+00  0.63311E+02    0.30000E+00  0.30000E+00 -0.60000E+00  0.00000E+00  0.00000E+00  0.00000E+00    0.17422E+02  0.19705E+02 -0.37127E+02 -0.20608E+01  0.19033E+01  0.17120E+02      982.00
  0.55653E+00  0.63521E+02    0.31250E+00  0.31250E+00 -0.62500E+00  0.00000E+00  0.00000E+00  0.00000E+00    0.17497E+02  0.19731E+02 -0.37229E+02 -0.20838E+01  0.18797E+01  0.17215E+02      982.00
  0.57851E+00  0.63727E+02    0.32500E+00  0.32500E+00 -0.65000E+00  0.00000E+00  0.00000E+00  0.00000E+00    0.17587E+02  0.19737E+02 -0.37323E+02 -0.20999E+01  0.18431E+01  0.17320E+02      982.00
  0.60047E+00  0.63887E+02    0.33750E+00  0.33750E+00 -0.67500E+00  0.00000E+00  0.00000E+00  0.00000E+00    0.17670E+02  0.19726E+02 -0.37396E+02 -0.21090E+01  0.18080E+01  0.17404E+02      982.00
  0.62242E+00  0.64097E+02    0.35000E+00  0.35000E+00 -0.70000E+00  0.00000E+00  0.00000E+00  0.00000E+00    0.17775E+02  0.19716E+02 -0.37491E+02 -0.21172E+01  0.17762E+01  0.17514E+02      982.00
  0.64435E+00  0.64259E+02    0.36250E+00  0.36250E+00 -0.72500E+00  0.00000E+00  0.00000E+00  0.00000E+00    0.17860E+02  0.19704E+02 -0.37563E+02 -0.21217E+01  0.17578E+01  0.17599E+02      982.00
  0.66627E+00  0.64384E+02    0.37500E+00  0.37500E+00 -0.75000E+00  0.00000E+00  0.00000E+00  0.00000E+00    0.17923E+02  0.19698E+02 -0.37621E+02 -0.21257E+01  0.17509E+01  0.17661E+02      982.00
  0.68819E+00  0.64524E+02    0.38750E+00  0.38750E+00 -0.77500E+00  0.00000E+00  0.00000E+00  0.00000E+00    0.18006E+02  0.19677E+02 -0.37684E+02 -0.21252E+01  0.17404E+01  0.17734E+02      982.00
  0.71009E+00  0.64653E+02    0.40000E+00  0.40000E+00 -0.80000E+00  0.00000E+00  0.00000E+00  0.00000E+00    0.18089E+02  0.19653E+02 -0.37741E+02 -0.21231E+01  0.17330E+01  0.17802E+02      982.00
  0.73198E+00  0.64770E+02    0.41250E+00  0.41250E+00 -0.82500E+00  0.00000E+00  0.00000E+00  0.00000E+00    0.18171E+02  0.19624E+02 -0.37795E+02 -0.21200E+01  0.17279E+01  0.17862E+02      982.00
  0.75386E+00  0.64843E+02    0.42500E+00  0.42500E+00 -0.85000E+00  0.00000E+00  0.00000E+00  0.00000E+00    0.18247E+02  0.19582E+02 -0.37828E+02 -0.21122E+01  0.17236E+01  0.17900E+02      982.00
  0.77574E+00  0.64945E+02    0.43750E+00  0.43750E+00 -0.87500E+00  0.00000E+00  0.00000E+00  0.00000E+00    0.18327E+02  0.19549E+02 -0.37876E+02 -0.21089E+01  0.17215E+01  0.17951E+02      982.00
  0.79761E+00  0.65025E+02    0.45000E+00  0.45000E+00 -0.90000E+00  0.00000E+00  0.00000E+00  0.00000E+00    0.18416E+02  0.19497E+02 -0.37913E+02 -0.21023E+01  0.17189E+01  0.17992E+02      982.00
  0.81947E+00  0.65114E+02    0.46250E+00  0.46250E+00 -0.92500E+00  0.00000E+00  0.00000E+00  0.00000E+00    0.18494E+02  0.19461E+02 -0.37956E+02 -0.21000E+01  0.17177E+01  0.18033E+02      982.00
  0.84133E+00  0.65189E+02    0.47500E+00  0.47500E+00 -0.95000E+00  0.00000E+00  0.00000E+00  0.00000E+00    0.18569E+02  0.19424E+02 -0.37993E+02 -0.20984E+01  0.17160E+01  0.18067E+02      982.00
  0.86319E+00  0.65245E+02    0.48750E+00  0.48750E+00 -0.97500E+00  0.00000E+00  0.00000E+00  0.00000E+00    0.18666E+02  0.19352E+02 -0.38018E+02 -0.20840E+01  0.17056E+01  0.18099E+02      982.00
  0.88504E+00  0.65246E+02    0.50000E+00  0.50000E+00 -0.10000E+01  0.00000E+00  0.00000E+00  0.00000E+00    0.18637E+02  0.19381E+02 -0.38018E+02 -0.20858E+01  0.17091E+01  0.18100E+02      982.00
