          Evm          Svm            E11          E22          E33          E23          E13          E12         SDEV11       SDEV22       SDEV33       SDEV23       SDEV13       SDEV12      TEMP
  0.00000E+00  0.63936E+02    0.00000E+00  0.00000E+00  0.00000E+00  0.00000E+00  0.00000E+00  0.00000E+00    0.20905E+02  0.20849E+02 -0.41754E+02 -0.63828E+01  0.37225E+01  0.69544E+00      982.00
  0.24489E-01  0.63674E+02    0.12500E-01  0.12500E-01 -0.25000E-01  0.00000E+00  0.00000E+00  0.00000E+00    0.21120E+02  0.20468E+02 -0.41588E+02 -0.63069E+01  0.36795E+01  0.93102E+00      982.00
  0.48982E-01  0.63526E+02    0.25000E-01  0.25000E-01 -0.50000E-01  0.00000E+00  0.00000E+00  0.00000E+00    0.21395E+02  0.20098E+02 -0.41493E+02 -0.62358E+01  0.36361E+01  0.11901E+01      982.00
  0.73476E-01  0.63443E+02    0.37500E-01  0.37500E-01 -0.75000E-01  0.00000E+00  0.00000E+00  0.00000E+00    0.21744E+02  0.19701E+02 -0.41444E+02 -0.61118E+01  0.35793E+01  0.14909E+01      982.00
  0.97973E-01  0.63433E+02    0.50000E-01  0.50000E-01 -0.10000E+00  0.00000E+00  0.00000E+00  0.00000E+00    0.22155E+02  0.19291E+02 -0.41447E+02 -0.59335E+01  0.35123E+01  0.18157E+01      982.00
  0.12248E+00  0.63459E+02    0.62500E-01  0.62500E-01 -0.12500E+00  0.00000E+00  0.00000E+00  0.00000E+00    0.22601E+02  0.18872E+02 -0.41473E+02 -0.56969E+01  0.34320E+01  0.21473E+01      982.00
  0.14698E+00  0.63482E+02    0.75000E-01  0.75000E-01 -0.15000E+00  0.00000E+00  0.00000E+00  0.00000E+00    0.23054E+02  0.18444E+02 -0.41498E+02 -0.54060E+01  0.33372E+01  0.24683E+01      982.00
  0.17150E+00  0.63514E+02    0.87500E-01  0.87500E-01 -0.17500E+00  0.00000E+00  0.00000E+00  0.00000E+00    0.23486E+02  0.18039E+02 -0.41525E+02 -0.50995E+01  0.32345E+01  0.27525E+01      982.00
  0.19601E+00  0.63552E+02    0.10000E+00  0.10000E+00 -0.20000E+00  0.00000E+00  0.00000E+00  0.00000E+00    0.23879E+02  0.17671E+02 -0.41550E+02 -0.48065E+01  0.31352E+01  0.29882E+01      982.00
  0.22053E+00  0.63634E+02    0.11250E+00  0.11250E+00 -0.22500E+00  0.00000E+00  0.00000E+00  0.00000E+00    0.24240E+02  0.17360E+02 -0.41600E+02 -0.45444E+01  0.30500E+01  0.31707E+01      982.00
  0.24505E+00  0.63754E+02    0.12500E+00  0.12500E+00 -0.25000E+00  0.00000E+00  0.00000E+00  0.00000E+00    0.24553E+02  0.17117E+02 -0.41670E+02 -0.43492E+01  0.29859E+01  0.32971E+01      982.00
  0.26956E+00  0.63943E+02    0.13750E+00  0.13750E+00 -0.27500E+00  0.00000E+00  0.00000E+00  0.00000E+00    0.24856E+02  0.16930E+02 -0.41786E+02 -0.41899E+01  0.29425E+01  0.33823E+01      982.00
  0.29406E+00  0.64158E+02    0.15000E+00  0.15000E+00 -0.30000E+00  0.00000E+00  0.00000E+00  0.00000E+00    0.25127E+02  0.16789E+02 -0.41916E+02 -0.40833E+01  0.29162E+01  0.34318E+01      982.00
  0.31856E+00  0.64398E+02    0.16250E+00  0.16250E+00 -0.32500E+00  0.00000E+00  0.00000E+00  0.00000E+00    0.25382E+02  0.16682E+02 -0.42064E+02 -0.40006E+01  0.29053E+01  0.34544E+01      982.00
  0.34306E+00  0.64673E+02    0.17500E+00  0.17500E+00 -0.35000E+00  0.00000E+00  0.00000E+00  0.00000E+00    0.25630E+02  0.16604E+02 -0.42234E+02 -0.39541E+01  0.29039E+01  0.34606E+01      982.00
  0.36755E+00  0.64930E+02    0.18750E+00  0.18750E+00 -0.37500E+00  0.00000E+00  0.00000E+00  0.00000E+00    0.25859E+02  0.16533E+02 -0.42392E+02 -0.39169E+01  0.29134E+01  0.34474E+01      982.00
  0.39203E+00  0.65193E+02    0.20000E+00  0.20000E+00 -0.40000E+00  0.00000E+00  0.00000E+00  0.00000E+00    0.26074E+02  0.16480E+02 -0.42554E+02 -0.39041E+01  0.29263E+01  0.34265E+01      982.00
  0.41651E+00  0.65439E+02    0.21250E+00  0.21250E+00 -0.42500E+00  0.00000E+00  0.00000E+00  0.00000E+00    0.26272E+02  0.16433E+02 -0.42705E+02 -0.39011E+01  0.29411E+01  0.33979E+01      982.00
  0.44098E+00  0.65662E+02    0.22500E+00  0.22500E+00 -0.45000E+00  0.00000E+00  0.00000E+00  0.00000E+00    0.26448E+02  0.16395E+02 -0.42843E+02 -0.39025E+01  0.29534E+01  0.33666E+01      982.00
  0.46545E+00  0.65869E+02    0.23750E+00  0.23750E+00 -0.47500E+00  0.00000E+00  0.00000E+00  0.00000E+00    0.26621E+02  0.16347E+02 -0.42968E+02 -0.39070E+01  0.29772E+01  0.33233E+01      982.00
  0.48991E+00  0.66072E+02    0.25000E+00  0.25000E+00 -0.50000E+00  0.00000E+00  0.00000E+00  0.00000E+00    0.26781E+02  0.16310E+02 -0.43091E+02 -0.39225E+01  0.29960E+01  0.32820E+01      982.00
  0.51437E+00  0.66262E+02    0.26250E+00  0.26250E+00 -0.52500E+00  0.00000E+00  0.00000E+00  0.00000E+00    0.26932E+02  0.16274E+02 -0.43206E+02 -0.39410E+01  0.30132E+01  0.32387E+01      982.00
  0.53882E+00  0.66430E+02    0.27500E+00  0.27500E+00 -0.55000E+00  0.00000E+00  0.00000E+00  0.00000E+00    0.27069E+02  0.16237E+02 -0.43306E+02 -0.39613E+01  0.30306E+01  0.31933E+01      982.00
  0.56326E+00  0.66587E+02    0.28750E+00  0.28750E+00 -0.57500E+00  0.00000E+00  0.00000E+00  0.00000E+00    0.27209E+02  0.16190E+02 -0.43398E+02 -0.39818E+01  0.30548E+01  0.31378E+01      982.00
  0.58771E+00  0.66733E+02    0.30000E+00  0.30000E+00 -0.60000E+00  0.00000E+00  0.00000E+00  0.00000E+00    0.27329E+02  0.16155E+02 -0.43485E+02 -0.40042E+01  0.30706E+01  0.30909E+01      982.00
  0.61214E+00  0.66867E+02    0.31250E+00  0.31250E+00 -0.62500E+00  0.00000E+00  0.00000E+00  0.00000E+00    0.27442E+02  0.16121E+02 -0.43563E+02 -0.40308E+01  0.30864E+01  0.30433E+01      982.00
  0.63657E+00  0.66983E+02    0.32500E+00  0.32500E+00 -0.65000E+00  0.00000E+00  0.00000E+00  0.00000E+00    0.27545E+02  0.16086E+02 -0.43631E+02 -0.40552E+01  0.30993E+01  0.29963E+01      982.00
  0.66100E+00  0.67098E+02    0.33750E+00  0.33750E+00 -0.67500E+00  0.00000E+00  0.00000E+00  0.00000E+00    0.27644E+02  0.16053E+02 -0.43697E+02 -0.40813E+01  0.31116E+01  0.29494E+01      982.00
  0.68542E+00  0.67182E+02    0.35000E+00  0.35000E+00 -0.70000E+00  0.00000E+00  0.00000E+00  0.00000E+00    0.27722E+02  0.16023E+02 -0.43745E+02 -0.41006E+01  0.31215E+01  0.29101E+01      982.00
  0.70984E+00  0.67282E+02    0.36250E+00  0.36250E+00 -0.72500E+00  0.00000E+00  0.00000E+00  0.00000E+00    0.27810E+02  0.15993E+02 -0.43803E+02 -0.41270E+01  0.31320E+01  0.28640E+01      982.00
  0.73425E+00  0.67365E+02    0.37500E+00  0.37500E+00 -0.75000E+00  0.00000E+00  0.00000E+00  0.00000E+00    0.27890E+02  0.15958E+02 -0.43848E+02 -0.41534E+01  0.31414E+01  0.28177E+01      982.00
  0.75866E+00  0.67440E+02    0.38750E+00  0.38750E+00 -0.77500E+00  0.00000E+00  0.00000E+00  0.00000E+00    0.27975E+02  0.15912E+02 -0.43887E+02 -0.41840E+01  0.31604E+01  0.27599E+01      982.00
  0.78306E+00  0.67518E+02    0.40000E+00  0.40000E+00 -0.80000E+00  0.00000E+00  0.00000E+00  0.00000E+00    0.28049E+02  0.15881E+02 -0.43930E+02 -0.42104E+01  0.31684E+01  0.27148E+01      982.00
  0.80746E+00  0.67590E+02    0.41250E+00  0.41250E+00 -0.82500E+00  0.00000E+00  0.00000E+00  0.00000E+00    0.28119E+02  0.15851E+02 -0.43970E+02 -0.42361E+01  0.31753E+01  0.26708E+01      982.00
  0.83186E+00  0.67648E+02    0.42500E+00  0.42500E+00 -0.85000E+00  0.00000E+00  0.00000E+00  0.00000E+00    0.28181E+02  0.15820E+02 -0.44001E+02 -0.42616E+01  0.31810E+01  0.26273E+01      982.00
  0.85625E+00  0.67708E+02    0.43750E+00  0.43750E+00 -0.87500E+00  0.00000E+00  0.00000E+00  0.00000E+00    0.28241E+02  0.15791E+02 -0.44033E+02 -0.42872E+01  0.31860E+01  0.25843E+01      982.00
  0.88064E+00  0.67763E+02    0.45000E+00  0.45000E+00 -0.90000E+00  0.00000E+00  0.00000E+00  0.00000E+00    0.28300E+02  0.15762E+02 -0.44061E+02 -0.43131E+01  0.31909E+01  0.25416E+01      982.00
  0.90502E+00  0.67761E+02    0.46250E+00  0.46250E+00 -0.92500E+00  0.00000E+00  0.00000E+00  0.00000E+00    0.28356E+02  0.15703E+02 -0.44059E+02 -0.42969E+01  0.31525E+01  0.24924E+01      982.00
  0.92940E+00  0.67745E+02    0.47500E+00  0.47500E+00 -0.95000E+00  0.00000E+00  0.00000E+00  0.00000E+00    0.28380E+02  0.15666E+02 -0.44046E+02 -0.42964E+01  0.31352E+01  0.24589E+01      982.00
  0.95379E+00  0.67737E+02    0.48750E+00  0.48750E+00 -0.97500E+00  0.00000E+00  0.00000E+00  0.00000E+00    0.28407E+02  0.15632E+02 -0.44038E+02 -0.43001E+01  0.31215E+01  0.24245E+01      982.00
  0.97817E+00  0.67730E+02    0.50000E+00  0.50000E+00 -0.10000E+01  0.00000E+00  0.00000E+00  0.00000E+00    0.28431E+02  0.15599E+02 -0.44031E+02 -0.43053E+01  0.31088E+01  0.23899E+01      982.00
