          Evm          Svm            E11          E22          E33          E23          E13          E12         SDEV11       SDEV22       SDEV33       SDEV23       SDEV13       SDEV12      TEMP
  0.00000E+00  0.57923E+02    0.00000E+00  0.00000E+00  0.00000E+00  0.00000E+00  0.00000E+00  0.00000E+00    0.18823E+02  0.16692E+02 -0.35515E+02 -0.17259E+01  0.29430E+01  0.12633E+02      982.00
  0.22993E-01  0.57956E+02    0.12500E-01  0.12500E-01 -0.25000E-01  0.00000E+00  0.00000E+00  0.00000E+00    0.18562E+02  0.16910E+02 -0.35473E+02 -0.19017E+01  0.28357E+01  0.12788E+02      982.00
  0.45945E-01  0.58072E+02    0.25000E-01  0.25000E-01 -0.50000E-01  0.00000E+00  0.00000E+00  0.00000E+00    0.18396E+02  0.17071E+02 -0.35467E+02 -0.20319E+01  0.27661E+01  0.12979E+02      982.00
  0.68848E-01  0.58263E+02    0.37500E-01  0.37500E-01 -0.75000E-01  0.00000E+00  0.00000E+00  0.00000E+00    0.18286E+02  0.17209E+02 -0.35495E+02 -0.21375E+01  0.27064E+01  0.13208E+02      982.00
  0.91694E-01  0.58517E+02    0.50000E-01  0.50000E-01 -0.10000E+00  0.00000E+00  0.00000E+00  0.00000E+00    0.18218E+02  0.17333E+02 -0.35550E+02 -0.22216E+01  0.26511E+01  0.13467E+02      982.00
  0.11448E+00  0.58819E+02    0.62500E-01  0.62500E-01 -0.12500E+00  0.00000E+00  0.00000E+00  0.00000E+00    0.18184E+02  0.17446E+02 -0.35630E+02 -0.22860E+01  0.25973E+01  0.13747E+02      982.00
  0.13719E+00  0.59160E+02    0.75000E-01  0.75000E-01 -0.15000E+00  0.00000E+00  0.00000E+00  0.00000E+00    0.18181E+02  0.17549E+02 -0.35730E+02 -0.23284E+01  0.25464E+01  0.14041E+02      982.00
  0.15984E+00  0.59521E+02    0.87500E-01  0.87500E-01 -0.17500E+00  0.00000E+00  0.00000E+00  0.00000E+00    0.18191E+02  0.17651E+02 -0.35842E+02 -0.23578E+01  0.24906E+01  0.14338E+02      982.00
  0.18242E+00  0.59885E+02    0.10000E+00  0.10000E+00 -0.20000E+00  0.00000E+00  0.00000E+00  0.00000E+00    0.18213E+02  0.17747E+02 -0.35960E+02 -0.23727E+01  0.24346E+01  0.14626E+02      982.00
  0.20494E+00  0.60261E+02    0.11250E+00  0.11250E+00 -0.22500E+00  0.00000E+00  0.00000E+00  0.00000E+00    0.18247E+02  0.17839E+02 -0.36086E+02 -0.23718E+01  0.23782E+01  0.14916E+02      982.00
  0.22740E+00  0.60630E+02    0.12500E+00  0.12500E+00 -0.25000E+00  0.00000E+00  0.00000E+00  0.00000E+00    0.18285E+02  0.17928E+02 -0.36213E+02 -0.23609E+01  0.23206E+01  0.15193E+02      982.00
  0.24979E+00  0.60979E+02    0.13750E+00  0.13750E+00 -0.27500E+00  0.00000E+00  0.00000E+00  0.00000E+00    0.18319E+02  0.18018E+02 -0.36337E+02 -0.23454E+01  0.22590E+01  0.15446E+02      982.00
  0.27214E+00  0.61322E+02    0.15000E+00  0.15000E+00 -0.30000E+00  0.00000E+00  0.00000E+00  0.00000E+00    0.18358E+02  0.18102E+02 -0.36460E+02 -0.23220E+01  0.22026E+01  0.15690E+02      982.00
  0.29444E+00  0.61641E+02    0.16250E+00  0.16250E+00 -0.32500E+00  0.00000E+00  0.00000E+00  0.00000E+00    0.18392E+02  0.18187E+02 -0.36579E+02 -0.22960E+01  0.21423E+01  0.15911E+02      982.00
  0.31669E+00  0.61948E+02    0.17500E+00  0.17500E+00 -0.35000E+00  0.00000E+00  0.00000E+00  0.00000E+00    0.18430E+02  0.18264E+02 -0.36694E+02 -0.22683E+01  0.20918E+01  0.16120E+02      982.00
  0.33890E+00  0.62236E+02    0.18750E+00  0.18750E+00 -0.37500E+00  0.00000E+00  0.00000E+00  0.00000E+00    0.18462E+02  0.18342E+02 -0.36804E+02 -0.22370E+01  0.20352E+01  0.16312E+02      982.00
  0.36108E+00  0.62492E+02    0.20000E+00  0.20000E+00 -0.40000E+00  0.00000E+00  0.00000E+00  0.00000E+00    0.18501E+02  0.18404E+02 -0.36904E+02 -0.22157E+01  0.20063E+01  0.16473E+02      982.00
  0.38322E+00  0.62745E+02    0.21250E+00  0.21250E+00 -0.42500E+00  0.00000E+00  0.00000E+00  0.00000E+00    0.18536E+02  0.18469E+02 -0.37005E+02 -0.21903E+01  0.19681E+01  0.16631E+02      982.00
  0.40534E+00  0.62963E+02    0.22500E+00  0.22500E+00 -0.45000E+00  0.00000E+00  0.00000E+00  0.00000E+00    0.18563E+02  0.18531E+02 -0.37094E+02 -0.21656E+01  0.19273E+01  0.16766E+02      982.00
  0.42743E+00  0.63183E+02    0.23750E+00  0.23750E+00 -0.47500E+00  0.00000E+00  0.00000E+00  0.00000E+00    0.18596E+02  0.18588E+02 -0.37185E+02 -0.21454E+01  0.18973E+01  0.16896E+02      982.00
  0.44950E+00  0.63383E+02    0.25000E+00  0.25000E+00 -0.50000E+00  0.00000E+00  0.00000E+00  0.00000E+00    0.18624E+02  0.18644E+02 -0.37267E+02 -0.21220E+01  0.18614E+01  0.17016E+02      982.00
  0.47155E+00  0.63562E+02    0.26250E+00  0.26250E+00 -0.52500E+00  0.00000E+00  0.00000E+00  0.00000E+00    0.18652E+02  0.18691E+02 -0.37343E+02 -0.21064E+01  0.18380E+01  0.17118E+02      982.00
  0.49358E+00  0.63736E+02    0.27500E+00  0.27500E+00 -0.55000E+00  0.00000E+00  0.00000E+00  0.00000E+00    0.18683E+02  0.18735E+02 -0.37418E+02 -0.20931E+01  0.18189E+01  0.17213E+02      982.00
  0.51560E+00  0.63915E+02    0.28750E+00  0.28750E+00 -0.57500E+00  0.00000E+00  0.00000E+00  0.00000E+00    0.18713E+02  0.18782E+02 -0.37495E+02 -0.20740E+01  0.17911E+01  0.17315E+02      982.00
  0.53760E+00  0.64061E+02    0.30000E+00  0.30000E+00 -0.60000E+00  0.00000E+00  0.00000E+00  0.00000E+00    0.18742E+02  0.18818E+02 -0.37560E+02 -0.20649E+01  0.17767E+01  0.17390E+02      982.00
  0.55958E+00  0.64195E+02    0.31250E+00  0.31250E+00 -0.62500E+00  0.00000E+00  0.00000E+00  0.00000E+00    0.18770E+02  0.18851E+02 -0.37621E+02 -0.20575E+01  0.17652E+01  0.17459E+02      982.00
  0.58156E+00  0.64281E+02    0.32500E+00  0.32500E+00 -0.65000E+00  0.00000E+00  0.00000E+00  0.00000E+00    0.18792E+02  0.18870E+02 -0.37662E+02 -0.20580E+01  0.17659E+01  0.17497E+02      982.00
  0.60353E+00  0.64397E+02    0.33750E+00  0.33750E+00 -0.67500E+00  0.00000E+00  0.00000E+00  0.00000E+00    0.18819E+02  0.18897E+02 -0.37716E+02 -0.20518E+01  0.17566E+01  0.17555E+02      982.00
  0.62550E+00  0.64533E+02    0.35000E+00  0.35000E+00 -0.70000E+00  0.00000E+00  0.00000E+00  0.00000E+00    0.18849E+02  0.18925E+02 -0.37773E+02 -0.20390E+01  0.17342E+01  0.17632E+02      982.00
  0.64744E+00  0.64637E+02    0.36250E+00  0.36250E+00 -0.72500E+00  0.00000E+00  0.00000E+00  0.00000E+00    0.18876E+02  0.18947E+02 -0.37823E+02 -0.20354E+01  0.17261E+01  0.17680E+02      982.00
  0.66939E+00  0.64727E+02    0.37500E+00  0.37500E+00 -0.75000E+00  0.00000E+00  0.00000E+00  0.00000E+00    0.18902E+02  0.18964E+02 -0.37866E+02 -0.20336E+01  0.17206E+01  0.17722E+02      982.00
  0.69133E+00  0.64812E+02    0.38750E+00  0.38750E+00 -0.77500E+00  0.00000E+00  0.00000E+00  0.00000E+00    0.18927E+02  0.18979E+02 -0.37907E+02 -0.20325E+01  0.17162E+01  0.17761E+02      982.00
  0.71326E+00  0.64891E+02    0.40000E+00  0.40000E+00 -0.80000E+00  0.00000E+00  0.00000E+00  0.00000E+00    0.18953E+02  0.18992E+02 -0.37945E+02 -0.20320E+01  0.17124E+01  0.17797E+02      982.00
  0.73519E+00  0.64965E+02    0.41250E+00  0.41250E+00 -0.82500E+00  0.00000E+00  0.00000E+00  0.00000E+00    0.18978E+02  0.19003E+02 -0.37980E+02 -0.20319E+01  0.17091E+01  0.17830E+02      982.00
  0.75711E+00  0.65073E+02    0.42500E+00  0.42500E+00 -0.85000E+00  0.00000E+00  0.00000E+00  0.00000E+00    0.19016E+02  0.19014E+02 -0.38030E+02 -0.20290E+01  0.16995E+01  0.17882E+02      982.00
  0.77903E+00  0.65134E+02    0.43750E+00  0.43750E+00 -0.87500E+00  0.00000E+00  0.00000E+00  0.00000E+00    0.19041E+02  0.19019E+02 -0.38059E+02 -0.20288E+01  0.16946E+01  0.17910E+02      982.00
  0.80094E+00  0.65191E+02    0.45000E+00  0.45000E+00 -0.90000E+00  0.00000E+00  0.00000E+00  0.00000E+00    0.19065E+02  0.19023E+02 -0.38087E+02 -0.20303E+01  0.16923E+01  0.17935E+02      982.00
  0.82285E+00  0.65245E+02    0.46250E+00  0.46250E+00 -0.92500E+00  0.00000E+00  0.00000E+00  0.00000E+00    0.19088E+02  0.19025E+02 -0.38114E+02 -0.20324E+01  0.16907E+01  0.17958E+02      982.00
  0.84475E+00  0.65295E+02    0.47500E+00  0.47500E+00 -0.95000E+00  0.00000E+00  0.00000E+00  0.00000E+00    0.19112E+02  0.19026E+02 -0.38138E+02 -0.20348E+01  0.16896E+01  0.17979E+02      982.00
  0.86666E+00  0.65342E+02    0.48750E+00  0.48750E+00 -0.97500E+00  0.00000E+00  0.00000E+00  0.00000E+00    0.19136E+02  0.19026E+02 -0.38162E+02 -0.20374E+01  0.16887E+01  0.17999E+02      982.00
  0.88856E+00  0.65332E+02    0.50000E+00  0.50000E+00 -0.10000E+01  0.00000E+00  0.00000E+00  0.00000E+00    0.19123E+02  0.19036E+02 -0.38159E+02 -0.20404E+01  0.16941E+01  0.17990E+02      982.00
