          Evm          Svm            E11          E22          E33          E23          E13          E12         SDEV11       SDEV22       SDEV33       SDEV23       SDEV13       SDEV12      TEMP
  0.00000E+00  0.53867E+02    0.00000E+00  0.00000E+00  0.00000E+00  0.00000E+00  0.00000E+00  0.00000E+00    0.18725E+02  0.14732E+02 -0.33458E+02 -0.17237E+01 -0.92035E+01 -0.60004E+01      982.00
  0.23292E-01  0.54143E+02    0.12500E-01  0.12500E-01 -0.25000E-01  0.00000E+00  0.00000E+00  0.00000E+00    0.18052E+02  0.15587E+02 -0.33638E+02 -0.26464E+01 -0.89150E+01 -0.63635E+01      982.00
  0.46590E-01  0.54451E+02    0.25000E-01  0.25000E-01 -0.50000E-01  0.00000E+00  0.00000E+00  0.00000E+00    0.17553E+02  0.16265E+02 -0.33818E+02 -0.32397E+01 -0.87103E+01 -0.66153E+01      982.00
  0.69881E-01  0.54775E+02    0.37500E-01  0.37500E-01 -0.75000E-01  0.00000E+00  0.00000E+00  0.00000E+00    0.17226E+02  0.16783E+02 -0.34010E+02 -0.35822E+01 -0.85811E+01 -0.67881E+01      982.00
  0.93164E-01  0.55101E+02    0.50000E-01  0.50000E-01 -0.10000E+00  0.00000E+00  0.00000E+00  0.00000E+00    0.17022E+02  0.17190E+02 -0.34212E+02 -0.37814E+01 -0.84889E+01 -0.69148E+01      982.00
  0.11645E+00  0.55430E+02    0.62500E-01  0.62500E-01 -0.12500E+00  0.00000E+00  0.00000E+00  0.00000E+00    0.16905E+02  0.17520E+02 -0.34426E+02 -0.39027E+01 -0.84110E+01 -0.70166E+01      982.00
  0.13974E+00  0.55765E+02    0.75000E-01  0.75000E-01 -0.15000E+00  0.00000E+00  0.00000E+00  0.00000E+00    0.16856E+02  0.17794E+02 -0.34650E+02 -0.39805E+01 -0.83378E+01 -0.71056E+01      982.00
  0.16304E+00  0.56110E+02    0.87500E-01  0.87500E-01 -0.17500E+00  0.00000E+00  0.00000E+00  0.00000E+00    0.16857E+02  0.18030E+02 -0.34887E+02 -0.40363E+01 -0.82647E+01 -0.71894E+01      982.00
  0.18636E+00  0.56471E+02    0.10000E+00  0.10000E+00 -0.20000E+00  0.00000E+00  0.00000E+00  0.00000E+00    0.16902E+02  0.18234E+02 -0.35136E+02 -0.40791E+01 -0.81920E+01 -0.72719E+01      982.00
  0.20969E+00  0.56847E+02    0.11250E+00  0.11250E+00 -0.22500E+00  0.00000E+00  0.00000E+00  0.00000E+00    0.16979E+02  0.18418E+02 -0.35398E+02 -0.41169E+01 -0.81179E+01 -0.73552E+01      982.00
  0.23304E+00  0.57241E+02    0.12500E+00  0.12500E+00 -0.25000E+00  0.00000E+00  0.00000E+00  0.00000E+00    0.17084E+02  0.18587E+02 -0.35671E+02 -0.41533E+01 -0.80423E+01 -0.74399E+01      982.00
  0.25641E+00  0.57649E+02    0.13750E+00  0.13750E+00 -0.27500E+00  0.00000E+00  0.00000E+00  0.00000E+00    0.17212E+02  0.18743E+02 -0.35955E+02 -0.41898E+01 -0.79655E+01 -0.75252E+01      982.00
  0.27980E+00  0.58069E+02    0.15000E+00  0.15000E+00 -0.30000E+00  0.00000E+00  0.00000E+00  0.00000E+00    0.17360E+02  0.18888E+02 -0.36247E+02 -0.42274E+01 -0.78873E+01 -0.76102E+01      982.00
  0.30320E+00  0.58495E+02    0.16250E+00  0.16250E+00 -0.32500E+00  0.00000E+00  0.00000E+00  0.00000E+00    0.17524E+02  0.19021E+02 -0.36545E+02 -0.42668E+01 -0.78081E+01 -0.76936E+01      982.00
  0.32663E+00  0.58932E+02    0.17500E+00  0.17500E+00 -0.35000E+00  0.00000E+00  0.00000E+00  0.00000E+00    0.17707E+02  0.19141E+02 -0.36848E+02 -0.43074E+01 -0.77318E+01 -0.77763E+01      982.00
  0.35008E+00  0.59365E+02    0.18750E+00  0.18750E+00 -0.37500E+00  0.00000E+00  0.00000E+00  0.00000E+00    0.17899E+02  0.19251E+02 -0.37150E+02 -0.43506E+01 -0.76523E+01 -0.78544E+01      982.00
  0.37355E+00  0.59796E+02    0.20000E+00  0.20000E+00 -0.40000E+00  0.00000E+00  0.00000E+00  0.00000E+00    0.18102E+02  0.19349E+02 -0.37451E+02 -0.43965E+01 -0.75728E+01 -0.79285E+01      982.00
  0.39703E+00  0.60227E+02    0.21250E+00  0.21250E+00 -0.42500E+00  0.00000E+00  0.00000E+00  0.00000E+00    0.18319E+02  0.19433E+02 -0.37752E+02 -0.44450E+01 -0.74928E+01 -0.79978E+01      982.00
  0.42054E+00  0.60658E+02    0.22500E+00  0.22500E+00 -0.45000E+00  0.00000E+00  0.00000E+00  0.00000E+00    0.18552E+02  0.19504E+02 -0.38055E+02 -0.44960E+01 -0.74099E+01 -0.80610E+01      982.00
  0.44407E+00  0.61076E+02    0.23750E+00  0.23750E+00 -0.47500E+00  0.00000E+00  0.00000E+00  0.00000E+00    0.18788E+02  0.19563E+02 -0.38351E+02 -0.45401E+01 -0.73300E+01 -0.81164E+01      982.00
  0.46761E+00  0.61483E+02    0.25000E+00  0.25000E+00 -0.50000E+00  0.00000E+00  0.00000E+00  0.00000E+00    0.19031E+02  0.19609E+02 -0.38640E+02 -0.45829E+01 -0.72497E+01 -0.81639E+01      982.00
  0.49118E+00  0.61876E+02    0.26250E+00  0.26250E+00 -0.52500E+00  0.00000E+00  0.00000E+00  0.00000E+00    0.19279E+02  0.19642E+02 -0.38921E+02 -0.46247E+01 -0.71682E+01 -0.82034E+01      982.00
  0.51477E+00  0.62255E+02    0.27500E+00  0.27500E+00 -0.55000E+00  0.00000E+00  0.00000E+00  0.00000E+00    0.19530E+02  0.19663E+02 -0.39194E+02 -0.46652E+01 -0.70855E+01 -0.82348E+01      982.00
  0.53838E+00  0.62618E+02    0.28750E+00  0.28750E+00 -0.57500E+00  0.00000E+00  0.00000E+00  0.00000E+00    0.19784E+02  0.19674E+02 -0.39457E+02 -0.47043E+01 -0.70015E+01 -0.82579E+01      982.00
  0.56201E+00  0.62965E+02    0.30000E+00  0.30000E+00 -0.60000E+00  0.00000E+00  0.00000E+00  0.00000E+00    0.20038E+02  0.19673E+02 -0.39711E+02 -0.47419E+01 -0.69164E+01 -0.82730E+01      982.00
  0.58566E+00  0.63295E+02    0.31250E+00  0.31250E+00 -0.62500E+00  0.00000E+00  0.00000E+00  0.00000E+00    0.20292E+02  0.19663E+02 -0.39955E+02 -0.47778E+01 -0.68303E+01 -0.82800E+01      982.00
  0.60933E+00  0.63609E+02    0.32500E+00  0.32500E+00 -0.65000E+00  0.00000E+00  0.00000E+00  0.00000E+00    0.20545E+02  0.19643E+02 -0.40188E+02 -0.48120E+01 -0.67433E+01 -0.82794E+01      982.00
  0.63302E+00  0.63897E+02    0.33750E+00  0.33750E+00 -0.67500E+00  0.00000E+00  0.00000E+00  0.00000E+00    0.20804E+02  0.19601E+02 -0.40406E+02 -0.48498E+01 -0.66545E+01 -0.82657E+01      982.00
  0.65673E+00  0.64179E+02    0.35000E+00  0.35000E+00 -0.70000E+00  0.00000E+00  0.00000E+00  0.00000E+00    0.21052E+02  0.19567E+02 -0.40619E+02 -0.48801E+01 -0.65652E+01 -0.82503E+01      982.00
  0.68047E+00  0.64445E+02    0.36250E+00  0.36250E+00 -0.72500E+00  0.00000E+00  0.00000E+00  0.00000E+00    0.21297E+02  0.19525E+02 -0.40822E+02 -0.49089E+01 -0.64761E+01 -0.82285E+01      982.00
  0.70422E+00  0.64695E+02    0.37500E+00  0.37500E+00 -0.75000E+00  0.00000E+00  0.00000E+00  0.00000E+00    0.21538E+02  0.19477E+02 -0.41015E+02 -0.49360E+01 -0.63869E+01 -0.82004E+01      982.00
  0.72800E+00  0.64932E+02    0.38750E+00  0.38750E+00 -0.77500E+00  0.00000E+00  0.00000E+00  0.00000E+00    0.21775E+02  0.19424E+02 -0.41199E+02 -0.49615E+01 -0.62979E+01 -0.81667E+01      982.00
  0.75179E+00  0.65174E+02    0.40000E+00  0.40000E+00 -0.80000E+00  0.00000E+00  0.00000E+00  0.00000E+00    0.21989E+02  0.19392E+02 -0.41381E+02 -0.49727E+01 -0.62246E+01 -0.81477E+01      982.00
  0.77560E+00  0.65383E+02    0.41250E+00  0.41250E+00 -0.82500E+00  0.00000E+00  0.00000E+00  0.00000E+00    0.22221E+02  0.19325E+02 -0.41546E+02 -0.49944E+01 -0.61392E+01 -0.81029E+01      982.00
  0.79943E+00  0.65583E+02    0.42500E+00  0.42500E+00 -0.85000E+00  0.00000E+00  0.00000E+00  0.00000E+00    0.22455E+02  0.19251E+02 -0.41706E+02 -0.50154E+01 -0.60544E+01 -0.80493E+01      982.00
  0.82328E+00  0.65767E+02    0.43750E+00  0.43750E+00 -0.87500E+00  0.00000E+00  0.00000E+00  0.00000E+00    0.22676E+02  0.19177E+02 -0.41853E+02 -0.50351E+01 -0.59700E+01 -0.79953E+01      982.00
  0.84714E+00  0.65940E+02    0.45000E+00  0.45000E+00 -0.90000E+00  0.00000E+00  0.00000E+00  0.00000E+00    0.22892E+02  0.19100E+02 -0.41993E+02 -0.50539E+01 -0.58863E+01 -0.79374E+01      982.00
  0.87102E+00  0.66102E+02    0.46250E+00  0.46250E+00 -0.92500E+00  0.00000E+00  0.00000E+00  0.00000E+00    0.23103E+02  0.19021E+02 -0.42125E+02 -0.50717E+01 -0.58037E+01 -0.78758E+01      982.00
  0.89492E+00  0.66254E+02    0.47500E+00  0.47500E+00 -0.95000E+00  0.00000E+00  0.00000E+00  0.00000E+00    0.23309E+02  0.18940E+02 -0.42250E+02 -0.50885E+01 -0.57221E+01 -0.78109E+01      982.00
  0.91883E+00  0.66396E+02    0.48750E+00  0.48750E+00 -0.97500E+00  0.00000E+00  0.00000E+00  0.00000E+00    0.23517E+02  0.18850E+02 -0.42368E+02 -0.51036E+01 -0.56451E+01 -0.77382E+01      982.00
  0.94276E+00  0.66470E+02    0.50000E+00  0.50000E+00 -0.10000E+01  0.00000E+00  0.00000E+00  0.00000E+00    0.23670E+02  0.18778E+02 -0.42448E+02 -0.51026E+01 -0.55360E+01 -0.76617E+01      982.00
