          Evm          Svm            E11          E22          E33          E23          E13          E12         SDEV11       SDEV22       SDEV33       SDEV23       SDEV13       SDEV12      TEMP
  0.00000E+00  0.57568E+02    0.00000E+00  0.00000E+00  0.00000E+00  0.00000E+00  0.00000E+00  0.00000E+00    0.16051E+02  0.16934E+02 -0.32985E+02 -0.32253E+01  0.58105E+00  0.16666E+02      982.00
  0.21487E-01  0.57443E+02    0.12500E-01  0.12500E-01 -0.25000E-01  0.00000E+00  0.00000E+00  0.00000E+00    0.15945E+02  0.17047E+02 -0.32992E+02 -0.32512E+01  0.96055E+00  0.16486E+02      982.00
  0.43024E-01  0.57453E+02    0.25000E-01  0.25000E-01 -0.50000E-01  0.00000E+00  0.00000E+00  0.00000E+00    0.15929E+02  0.17125E+02 -0.33054E+02 -0.32448E+01  0.12104E+01  0.16387E+02      982.00
  0.64599E-01  0.57591E+02    0.37500E-01  0.37500E-01 -0.75000E-01  0.00000E+00  0.00000E+00  0.00000E+00    0.15950E+02  0.17217E+02 -0.33168E+02 -0.32159E+01  0.14053E+01  0.16364E+02      982.00
  0.86195E-01  0.57809E+02    0.50000E-01  0.50000E-01 -0.10000E+00  0.00000E+00  0.00000E+00  0.00000E+00    0.15998E+02  0.17317E+02 -0.33315E+02 -0.31666E+01  0.15491E+01  0.16391E+02      982.00
  0.10781E+00  0.58107E+02    0.62500E-01  0.62500E-01 -0.12500E+00  0.00000E+00  0.00000E+00  0.00000E+00    0.16066E+02  0.17424E+02 -0.33491E+02 -0.31134E+01  0.16468E+01  0.16474E+02      982.00
  0.12942E+00  0.58460E+02    0.75000E-01  0.75000E-01 -0.15000E+00  0.00000E+00  0.00000E+00  0.00000E+00    0.16149E+02  0.17539E+02 -0.33688E+02 -0.30579E+01  0.17171E+01  0.16591E+02      982.00
  0.15103E+00  0.58847E+02    0.87500E-01  0.87500E-01 -0.17500E+00  0.00000E+00  0.00000E+00  0.00000E+00    0.16242E+02  0.17659E+02 -0.33901E+02 -0.29943E+01  0.17707E+01  0.16726E+02      982.00
  0.17263E+00  0.59264E+02    0.10000E+00  0.10000E+00 -0.20000E+00  0.00000E+00  0.00000E+00  0.00000E+00    0.16343E+02  0.17780E+02 -0.34123E+02 -0.29430E+01  0.18057E+01  0.16882E+02      982.00
  0.19422E+00  0.59694E+02    0.11250E+00  0.11250E+00 -0.22500E+00  0.00000E+00  0.00000E+00  0.00000E+00    0.16450E+02  0.17902E+02 -0.34352E+02 -0.28969E+01  0.18306E+01  0.17043E+02      982.00
  0.21581E+00  0.60123E+02    0.12500E+00  0.12500E+00 -0.25000E+00  0.00000E+00  0.00000E+00  0.00000E+00    0.16561E+02  0.18021E+02 -0.34581E+02 -0.28556E+01  0.18485E+01  0.17202E+02      982.00
  0.23737E+00  0.60535E+02    0.13750E+00  0.13750E+00 -0.27500E+00  0.00000E+00  0.00000E+00  0.00000E+00    0.16671E+02  0.18133E+02 -0.34803E+02 -0.28078E+01  0.18608E+01  0.17354E+02      982.00
  0.25893E+00  0.60941E+02    0.15000E+00  0.15000E+00 -0.30000E+00  0.00000E+00  0.00000E+00  0.00000E+00    0.16785E+02  0.18241E+02 -0.35025E+02 -0.27761E+01  0.18703E+01  0.17496E+02      982.00
  0.28049E+00  0.61325E+02    0.16250E+00  0.16250E+00 -0.32500E+00  0.00000E+00  0.00000E+00  0.00000E+00    0.16898E+02  0.18342E+02 -0.35240E+02 -0.27481E+01  0.18768E+01  0.17624E+02      982.00
  0.30204E+00  0.61692E+02    0.17500E+00  0.17500E+00 -0.35000E+00  0.00000E+00  0.00000E+00  0.00000E+00    0.17013E+02  0.18433E+02 -0.35445E+02 -0.27132E+01  0.18809E+01  0.17747E+02      982.00
  0.32358E+00  0.62028E+02    0.18750E+00  0.18750E+00 -0.37500E+00  0.00000E+00  0.00000E+00  0.00000E+00    0.17124E+02  0.18517E+02 -0.35641E+02 -0.26899E+01  0.18838E+01  0.17847E+02      982.00
  0.34513E+00  0.62339E+02    0.20000E+00  0.20000E+00 -0.40000E+00  0.00000E+00  0.00000E+00  0.00000E+00    0.17234E+02  0.18593E+02 -0.35827E+02 -0.26686E+01  0.18849E+01  0.17933E+02      982.00
  0.36668E+00  0.62625E+02    0.21250E+00  0.21250E+00 -0.42500E+00  0.00000E+00  0.00000E+00  0.00000E+00    0.17340E+02  0.18661E+02 -0.36002E+02 -0.26482E+01  0.18846E+01  0.18006E+02      982.00
  0.38824E+00  0.62889E+02    0.22500E+00  0.22500E+00 -0.45000E+00  0.00000E+00  0.00000E+00  0.00000E+00    0.17444E+02  0.18722E+02 -0.36166E+02 -0.26283E+01  0.18830E+01  0.18069E+02      982.00
  0.40980E+00  0.63129E+02    0.23750E+00  0.23750E+00 -0.47500E+00  0.00000E+00  0.00000E+00  0.00000E+00    0.17544E+02  0.18776E+02 -0.36319E+02 -0.26081E+01  0.18799E+01  0.18121E+02      982.00
  0.43138E+00  0.63350E+02    0.25000E+00  0.25000E+00 -0.50000E+00  0.00000E+00  0.00000E+00  0.00000E+00    0.17641E+02  0.18822E+02 -0.36464E+02 -0.25888E+01  0.18762E+01  0.18165E+02      982.00
  0.45296E+00  0.63553E+02    0.26250E+00  0.26250E+00 -0.52500E+00  0.00000E+00  0.00000E+00  0.00000E+00    0.17736E+02  0.18863E+02 -0.36599E+02 -0.25697E+01  0.18717E+01  0.18201E+02      982.00
  0.47456E+00  0.63739E+02    0.27500E+00  0.27500E+00 -0.55000E+00  0.00000E+00  0.00000E+00  0.00000E+00    0.17827E+02  0.18898E+02 -0.36725E+02 -0.25508E+01  0.18664E+01  0.18231E+02      982.00
  0.49617E+00  0.63916E+02    0.28750E+00  0.28750E+00 -0.57500E+00  0.00000E+00  0.00000E+00  0.00000E+00    0.17926E+02  0.18920E+02 -0.36847E+02 -0.25245E+01  0.18589E+01  0.18260E+02      982.00
  0.51778E+00  0.64064E+02    0.30000E+00  0.30000E+00 -0.60000E+00  0.00000E+00  0.00000E+00  0.00000E+00    0.18002E+02  0.18951E+02 -0.36953E+02 -0.25126E+01  0.18543E+01  0.18274E+02      982.00
  0.53941E+00  0.64212E+02    0.31250E+00  0.31250E+00 -0.62500E+00  0.00000E+00  0.00000E+00  0.00000E+00    0.18094E+02  0.18964E+02 -0.37058E+02 -0.24876E+01  0.18453E+01  0.18292E+02      982.00
  0.56106E+00  0.64327E+02    0.32500E+00  0.32500E+00 -0.65000E+00  0.00000E+00  0.00000E+00  0.00000E+00    0.18165E+02  0.18976E+02 -0.37142E+02 -0.24726E+01  0.18405E+01  0.18303E+02      982.00
  0.58271E+00  0.64448E+02    0.33750E+00  0.33750E+00 -0.67500E+00  0.00000E+00  0.00000E+00  0.00000E+00    0.18242E+02  0.18990E+02 -0.37232E+02 -0.24552E+01  0.18331E+01  0.18312E+02      982.00
  0.60437E+00  0.64560E+02    0.35000E+00  0.35000E+00 -0.70000E+00  0.00000E+00  0.00000E+00  0.00000E+00    0.18315E+02  0.19000E+02 -0.37316E+02 -0.24379E+01  0.18253E+01  0.18319E+02      982.00
  0.62605E+00  0.64663E+02    0.36250E+00  0.36250E+00 -0.72500E+00  0.00000E+00  0.00000E+00  0.00000E+00    0.18386E+02  0.19008E+02 -0.37394E+02 -0.24211E+01  0.18175E+01  0.18324E+02      982.00
  0.64773E+00  0.64758E+02    0.37500E+00  0.37500E+00 -0.75000E+00  0.00000E+00  0.00000E+00  0.00000E+00    0.18455E+02  0.19012E+02 -0.37467E+02 -0.24048E+01  0.18097E+01  0.18327E+02      982.00
  0.66943E+00  0.64845E+02    0.38750E+00  0.38750E+00 -0.77500E+00  0.00000E+00  0.00000E+00  0.00000E+00    0.18520E+02  0.19015E+02 -0.37535E+02 -0.23890E+01  0.18020E+01  0.18329E+02      982.00
  0.69114E+00  0.64927E+02    0.40000E+00  0.40000E+00 -0.80000E+00  0.00000E+00  0.00000E+00  0.00000E+00    0.18584E+02  0.19015E+02 -0.37599E+02 -0.23738E+01  0.17943E+01  0.18330E+02      982.00
  0.71285E+00  0.65002E+02    0.41250E+00  0.41250E+00 -0.82500E+00  0.00000E+00  0.00000E+00  0.00000E+00    0.18645E+02  0.19013E+02 -0.37658E+02 -0.23593E+01  0.17868E+01  0.18331E+02      982.00
  0.73458E+00  0.65072E+02    0.42500E+00  0.42500E+00 -0.85000E+00  0.00000E+00  0.00000E+00  0.00000E+00    0.18704E+02  0.19010E+02 -0.37714E+02 -0.23454E+01  0.17796E+01  0.18330E+02      982.00
  0.75631E+00  0.65137E+02    0.43750E+00  0.43750E+00 -0.87500E+00  0.00000E+00  0.00000E+00  0.00000E+00    0.18760E+02  0.19005E+02 -0.37766E+02 -0.23321E+01  0.17725E+01  0.18330E+02      982.00
  0.77805E+00  0.65197E+02    0.45000E+00  0.45000E+00 -0.90000E+00  0.00000E+00  0.00000E+00  0.00000E+00    0.18815E+02  0.18999E+02 -0.37815E+02 -0.23195E+01  0.17657E+01  0.18328E+02      982.00
  0.79980E+00  0.65254E+02    0.46250E+00  0.46250E+00 -0.92500E+00  0.00000E+00  0.00000E+00  0.00000E+00    0.18868E+02  0.18992E+02 -0.37860E+02 -0.23076E+01  0.17592E+01  0.18327E+02      982.00
  0.82156E+00  0.65307E+02    0.47500E+00  0.47500E+00 -0.95000E+00  0.00000E+00  0.00000E+00  0.00000E+00    0.18919E+02  0.18984E+02 -0.37903E+02 -0.22963E+01  0.17529E+01  0.18326E+02      982.00
  0.84333E+00  0.65356E+02    0.48750E+00  0.48750E+00 -0.97500E+00  0.00000E+00  0.00000E+00  0.00000E+00    0.18969E+02  0.18974E+02 -0.37943E+02 -0.22857E+01  0.17469E+01  0.18324E+02      982.00
  0.86510E+00  0.65360E+02    0.50000E+00  0.50000E+00 -0.10000E+01  0.00000E+00  0.00000E+00  0.00000E+00    0.18996E+02  0.18956E+02 -0.37953E+02 -0.22676E+01  0.17375E+01  0.18318E+02      982.00
