          Evm          Svm            E11          E22          E33          E23          E13          E12         SDEV11       SDEV22       SDEV33       SDEV23       SDEV13       SDEV12      TEMP
  0.00000E+00  0.59106E+02    0.00000E+00  0.00000E+00  0.00000E+00  0.00000E+00  0.00000E+00  0.00000E+00    0.25869E+02  0.11985E+02 -0.37854E+02 -0.50178E+01  0.33755E+01 -0.22410E+01      982.00
  0.24017E-01  0.58945E+02    0.12500E-01  0.12500E-01 -0.25000E-01  0.00000E+00  0.00000E+00  0.00000E+00    0.25818E+02  0.11984E+02 -0.37801E+02 -0.49240E+01  0.30973E+01 -0.21807E+01      982.00
  0.48066E-01  0.58809E+02    0.25000E-01  0.25000E-01 -0.50000E-01  0.00000E+00  0.00000E+00  0.00000E+00    0.25781E+02  0.11982E+02 -0.37763E+02 -0.48204E+01  0.28086E+01 -0.21299E+01      982.00
  0.72146E-01  0.58741E+02    0.37500E-01  0.37500E-01 -0.75000E-01  0.00000E+00  0.00000E+00  0.00000E+00    0.25780E+02  0.11984E+02 -0.37765E+02 -0.47198E+01  0.25148E+01 -0.20856E+01      982.00
  0.96255E-01  0.58784E+02    0.50000E-01  0.50000E-01 -0.10000E+00  0.00000E+00  0.00000E+00  0.00000E+00    0.25834E+02  0.11993E+02 -0.37826E+02 -0.46364E+01  0.22531E+01 -0.20625E+01      982.00
  0.12039E+00  0.58939E+02    0.62500E-01  0.62500E-01 -0.12500E+00  0.00000E+00  0.00000E+00  0.00000E+00    0.25948E+02  0.11999E+02 -0.37948E+02 -0.45755E+01  0.20273E+01 -0.20568E+01      982.00
  0.14453E+00  0.59228E+02    0.75000E-01  0.75000E-01 -0.15000E+00  0.00000E+00  0.00000E+00  0.00000E+00    0.26129E+02  0.12013E+02 -0.38142E+02 -0.45472E+01  0.18532E+01 -0.20778E+01      982.00
  0.16868E+00  0.59619E+02    0.87500E-01  0.87500E-01 -0.17500E+00  0.00000E+00  0.00000E+00  0.00000E+00    0.26357E+02  0.12036E+02 -0.38393E+02 -0.45397E+01  0.17146E+01 -0.21138E+01      982.00
  0.19283E+00  0.60077E+02    0.10000E+00  0.10000E+00 -0.20000E+00  0.00000E+00  0.00000E+00  0.00000E+00    0.26612E+02  0.12069E+02 -0.38681E+02 -0.45561E+01  0.16119E+01 -0.21671E+01      982.00
  0.21697E+00  0.60602E+02    0.11250E+00  0.11250E+00 -0.22500E+00  0.00000E+00  0.00000E+00  0.00000E+00    0.26896E+02  0.12110E+02 -0.39006E+02 -0.45902E+01  0.15373E+01 -0.22340E+01      982.00
  0.24111E+00  0.61154E+02    0.12500E+00  0.12500E+00 -0.25000E+00  0.00000E+00  0.00000E+00  0.00000E+00    0.27186E+02  0.12162E+02 -0.39348E+02 -0.46297E+01  0.14826E+01 -0.23097E+01      982.00
  0.26524E+00  0.61737E+02    0.13750E+00  0.13750E+00 -0.27500E+00  0.00000E+00  0.00000E+00  0.00000E+00    0.27486E+02  0.12221E+02 -0.39707E+02 -0.46823E+01  0.14450E+01 -0.23931E+01      982.00
  0.28936E+00  0.62304E+02    0.15000E+00  0.15000E+00 -0.30000E+00  0.00000E+00  0.00000E+00  0.00000E+00    0.27762E+02  0.12301E+02 -0.40063E+02 -0.47220E+01  0.14296E+01 -0.24658E+01      982.00
  0.31347E+00  0.62848E+02    0.16250E+00  0.16250E+00 -0.32500E+00  0.00000E+00  0.00000E+00  0.00000E+00    0.28019E+02  0.12387E+02 -0.40406E+02 -0.47551E+01  0.14215E+01 -0.25349E+01      982.00
  0.33758E+00  0.63372E+02    0.17500E+00  0.17500E+00 -0.35000E+00  0.00000E+00  0.00000E+00  0.00000E+00    0.28260E+02  0.12480E+02 -0.40739E+02 -0.47821E+01  0.14179E+01 -0.25995E+01      982.00
  0.36169E+00  0.63872E+02    0.18750E+00  0.18750E+00 -0.37500E+00  0.00000E+00  0.00000E+00  0.00000E+00    0.28489E+02  0.12567E+02 -0.41056E+02 -0.48117E+01  0.14163E+01 -0.26682E+01      982.00
  0.38579E+00  0.64329E+02    0.20000E+00  0.20000E+00 -0.40000E+00  0.00000E+00  0.00000E+00  0.00000E+00    0.28690E+02  0.12662E+02 -0.41352E+02 -0.48229E+01  0.14196E+01 -0.27241E+01      982.00
  0.40990E+00  0.64744E+02    0.21250E+00  0.21250E+00 -0.42500E+00  0.00000E+00  0.00000E+00  0.00000E+00    0.28869E+02  0.12755E+02 -0.41624E+02 -0.48244E+01  0.14218E+01 -0.27704E+01      982.00
  0.43401E+00  0.65137E+02    0.22500E+00  0.22500E+00 -0.45000E+00  0.00000E+00  0.00000E+00  0.00000E+00    0.29035E+02  0.12847E+02 -0.41882E+02 -0.48212E+01  0.14250E+01 -0.28126E+01      982.00
  0.45812E+00  0.65495E+02    0.23750E+00  0.23750E+00 -0.47500E+00  0.00000E+00  0.00000E+00  0.00000E+00    0.29182E+02  0.12938E+02 -0.42120E+02 -0.48116E+01  0.14281E+01 -0.28493E+01      982.00
  0.48223E+00  0.65828E+02    0.25000E+00  0.25000E+00 -0.50000E+00  0.00000E+00  0.00000E+00  0.00000E+00    0.29318E+02  0.13026E+02 -0.42343E+02 -0.47974E+01  0.14313E+01 -0.28817E+01      982.00
  0.50635E+00  0.66139E+02    0.26250E+00  0.26250E+00 -0.52500E+00  0.00000E+00  0.00000E+00  0.00000E+00    0.29441E+02  0.13111E+02 -0.42552E+02 -0.47837E+01  0.14355E+01 -0.29101E+01      982.00
  0.53048E+00  0.66412E+02    0.27500E+00  0.27500E+00 -0.55000E+00  0.00000E+00  0.00000E+00  0.00000E+00    0.29548E+02  0.13190E+02 -0.42738E+02 -0.47622E+01  0.14382E+01 -0.29333E+01      982.00
  0.55461E+00  0.66672E+02    0.28750E+00  0.28750E+00 -0.57500E+00  0.00000E+00  0.00000E+00  0.00000E+00    0.29648E+02  0.13269E+02 -0.42917E+02 -0.47396E+01  0.14417E+01 -0.29535E+01      982.00
  0.57875E+00  0.66908E+02    0.30000E+00  0.30000E+00 -0.60000E+00  0.00000E+00  0.00000E+00  0.00000E+00    0.29737E+02  0.13343E+02 -0.43081E+02 -0.47125E+01  0.14439E+01 -0.29687E+01      982.00
  0.60290E+00  0.67125E+02    0.31250E+00  0.31250E+00 -0.62500E+00  0.00000E+00  0.00000E+00  0.00000E+00    0.29819E+02  0.13413E+02 -0.43231E+02 -0.46822E+01  0.14457E+01 -0.29805E+01      982.00
  0.62705E+00  0.67325E+02    0.32500E+00  0.32500E+00 -0.65000E+00  0.00000E+00  0.00000E+00  0.00000E+00    0.29892E+02  0.13481E+02 -0.43373E+02 -0.46504E+01  0.14471E+01 -0.29887E+01      982.00
  0.65121E+00  0.67495E+02    0.33750E+00  0.33750E+00 -0.67500E+00  0.00000E+00  0.00000E+00  0.00000E+00    0.29950E+02  0.13543E+02 -0.43493E+02 -0.46314E+01  0.14473E+01 -0.29918E+01      982.00
  0.67537E+00  0.67670E+02    0.35000E+00  0.35000E+00 -0.70000E+00  0.00000E+00  0.00000E+00  0.00000E+00    0.30013E+02  0.13604E+02 -0.43617E+02 -0.46009E+01  0.14483E+01 -0.29952E+01      982.00
  0.69954E+00  0.67829E+02    0.36250E+00  0.36250E+00 -0.72500E+00  0.00000E+00  0.00000E+00  0.00000E+00    0.30068E+02  0.13663E+02 -0.43732E+02 -0.45691E+01  0.14497E+01 -0.29959E+01      982.00
  0.72372E+00  0.67981E+02    0.37500E+00  0.37500E+00 -0.75000E+00  0.00000E+00  0.00000E+00  0.00000E+00    0.30123E+02  0.13719E+02 -0.43841E+02 -0.45371E+01  0.14513E+01 -0.29941E+01      982.00
  0.74791E+00  0.68117E+02    0.38750E+00  0.38750E+00 -0.77500E+00  0.00000E+00  0.00000E+00  0.00000E+00    0.30170E+02  0.13771E+02 -0.43941E+02 -0.45059E+01  0.14527E+01 -0.29899E+01      982.00
  0.77210E+00  0.68219E+02    0.40000E+00  0.40000E+00 -0.80000E+00  0.00000E+00  0.00000E+00  0.00000E+00    0.30204E+02  0.13811E+02 -0.44015E+02 -0.44777E+01  0.14537E+01 -0.29849E+01      982.00
  0.79629E+00  0.68336E+02    0.41250E+00  0.41250E+00 -0.82500E+00  0.00000E+00  0.00000E+00  0.00000E+00    0.30245E+02  0.13857E+02 -0.44102E+02 -0.44470E+01  0.14556E+01 -0.29776E+01      982.00
  0.82049E+00  0.68454E+02    0.42500E+00  0.42500E+00 -0.85000E+00  0.00000E+00  0.00000E+00  0.00000E+00    0.30286E+02  0.13903E+02 -0.44188E+02 -0.44155E+01  0.14571E+01 -0.29679E+01      982.00
  0.84470E+00  0.68501E+02    0.43750E+00  0.43750E+00 -0.87500E+00  0.00000E+00  0.00000E+00  0.00000E+00    0.30296E+02  0.13937E+02 -0.44233E+02 -0.43631E+01  0.14418E+01 -0.29436E+01      982.00
  0.86891E+00  0.68536E+02    0.45000E+00  0.45000E+00 -0.90000E+00  0.00000E+00  0.00000E+00  0.00000E+00    0.30305E+02  0.13963E+02 -0.44268E+02 -0.43148E+01  0.14342E+01 -0.29223E+01      982.00
  0.89314E+00  0.68566E+02    0.46250E+00  0.46250E+00 -0.92500E+00  0.00000E+00  0.00000E+00  0.00000E+00    0.30311E+02  0.13988E+02 -0.44299E+02 -0.42702E+01  0.14276E+01 -0.29003E+01      982.00
  0.91736E+00  0.68597E+02    0.47500E+00  0.47500E+00 -0.95000E+00  0.00000E+00  0.00000E+00  0.00000E+00    0.30319E+02  0.14011E+02 -0.44330E+02 -0.42278E+01  0.14223E+01 -0.28781E+01      982.00
  0.94160E+00  0.68640E+02    0.48750E+00  0.48750E+00 -0.97500E+00  0.00000E+00  0.00000E+00  0.00000E+00    0.30325E+02  0.14045E+02 -0.44370E+02 -0.41864E+01  0.14178E+01 -0.28506E+01      982.00
  0.96584E+00  0.68658E+02    0.50000E+00  0.50000E+00 -0.10000E+01  0.00000E+00  0.00000E+00  0.00000E+00    0.30330E+02  0.14060E+02 -0.44390E+02 -0.41505E+01  0.14135E+01 -0.28308E+01      982.00
