          Evm          Svm            E11          E22          E33          E23          E13          E12         SDEV11       SDEV22       SDEV33       SDEV23       SDEV13       SDEV12      TEMP
  0.00000E+00  0.59540E+02    0.00000E+00  0.00000E+00  0.00000E+00  0.00000E+00  0.00000E+00  0.00000E+00    0.16407E+02  0.20643E+02 -0.37050E+02 -0.42787E+01  0.16150E+01  0.11260E+02      982.00
  0.23335E-01  0.59604E+02    0.12500E-01  0.12500E-01 -0.25000E-01  0.00000E+00  0.00000E+00  0.00000E+00    0.16953E+02  0.20108E+02 -0.37061E+02 -0.38145E+01  0.16462E+01  0.11590E+02      982.00
  0.46652E-01  0.59692E+02    0.25000E-01  0.25000E-01 -0.50000E-01  0.00000E+00  0.00000E+00  0.00000E+00    0.17422E+02  0.19652E+02 -0.37074E+02 -0.34649E+01  0.16973E+01  0.11863E+02      982.00
  0.69942E-01  0.59828E+02    0.37500E-01  0.37500E-01 -0.75000E-01  0.00000E+00  0.00000E+00  0.00000E+00    0.17838E+02  0.19267E+02 -0.37105E+02 -0.31968E+01  0.17699E+01  0.12112E+02      982.00
  0.93199E-01  0.60028E+02    0.50000E-01  0.50000E-01 -0.10000E+00  0.00000E+00  0.00000E+00  0.00000E+00    0.18205E+02  0.18959E+02 -0.37164E+02 -0.29951E+01  0.18522E+01  0.12358E+02      982.00
  0.11642E+00  0.60295E+02    0.62500E-01  0.62500E-01 -0.12500E+00  0.00000E+00  0.00000E+00  0.00000E+00    0.18538E+02  0.18716E+02 -0.37254E+02 -0.28405E+01  0.19422E+01  0.12612E+02      982.00
  0.13959E+00  0.60619E+02    0.75000E-01  0.75000E-01 -0.15000E+00  0.00000E+00  0.00000E+00  0.00000E+00    0.18834E+02  0.18538E+02 -0.37372E+02 -0.27289E+01  0.20298E+01  0.12877E+02      982.00
  0.16270E+00  0.60993E+02    0.87500E-01  0.87500E-01 -0.17500E+00  0.00000E+00  0.00000E+00  0.00000E+00    0.19103E+02  0.18408E+02 -0.37511E+02 -0.26513E+01  0.21206E+01  0.13157E+02      982.00
  0.18577E+00  0.61399E+02    0.10000E+00  0.10000E+00 -0.20000E+00  0.00000E+00  0.00000E+00  0.00000E+00    0.19337E+02  0.18326E+02 -0.37662E+02 -0.26142E+01  0.22146E+01  0.13445E+02      982.00
  0.20877E+00  0.61800E+02    0.11250E+00  0.11250E+00 -0.22500E+00  0.00000E+00  0.00000E+00  0.00000E+00    0.19539E+02  0.18267E+02 -0.37806E+02 -0.26132E+01  0.23260E+01  0.13728E+02      982.00
  0.23171E+00  0.62153E+02    0.12500E+00  0.12500E+00 -0.25000E+00  0.00000E+00  0.00000E+00  0.00000E+00    0.19695E+02  0.18231E+02 -0.37926E+02 -0.26369E+01  0.24389E+01  0.13981E+02      982.00
  0.25459E+00  0.62453E+02    0.13750E+00  0.13750E+00 -0.27500E+00  0.00000E+00  0.00000E+00  0.00000E+00    0.19810E+02  0.18215E+02 -0.38026E+02 -0.26544E+01  0.25230E+01  0.14199E+02      982.00
  0.27743E+00  0.62731E+02    0.15000E+00  0.15000E+00 -0.30000E+00  0.00000E+00  0.00000E+00  0.00000E+00    0.19891E+02  0.18233E+02 -0.38124E+02 -0.26532E+01  0.25533E+01  0.14401E+02      982.00
  0.30022E+00  0.62994E+02    0.16250E+00  0.16250E+00 -0.32500E+00  0.00000E+00  0.00000E+00  0.00000E+00    0.19956E+02  0.18269E+02 -0.38224E+02 -0.26252E+01  0.25431E+01  0.14590E+02      982.00
  0.32297E+00  0.63269E+02    0.17500E+00  0.17500E+00 -0.35000E+00  0.00000E+00  0.00000E+00  0.00000E+00    0.19991E+02  0.18328E+02 -0.38319E+02 -0.25732E+01  0.24740E+01  0.14820E+02      982.00
  0.34568E+00  0.63533E+02    0.18750E+00  0.18750E+00 -0.37500E+00  0.00000E+00  0.00000E+00  0.00000E+00    0.20020E+02  0.18398E+02 -0.38418E+02 -0.25219E+01  0.23908E+01  0.15026E+02      982.00
  0.36836E+00  0.63788E+02    0.20000E+00  0.20000E+00 -0.40000E+00  0.00000E+00  0.00000E+00  0.00000E+00    0.20053E+02  0.18460E+02 -0.38512E+02 -0.24657E+01  0.23090E+01  0.15228E+02      982.00
  0.39100E+00  0.64042E+02    0.21250E+00  0.21250E+00 -0.42500E+00  0.00000E+00  0.00000E+00  0.00000E+00    0.20086E+02  0.18512E+02 -0.38598E+02 -0.23946E+01  0.22166E+01  0.15443E+02      982.00
  0.41360E+00  0.64284E+02    0.22500E+00  0.22500E+00 -0.45000E+00  0.00000E+00  0.00000E+00  0.00000E+00    0.20114E+02  0.18565E+02 -0.38679E+02 -0.23242E+01  0.21224E+01  0.15651E+02      982.00
  0.43616E+00  0.64518E+02    0.23750E+00  0.23750E+00 -0.47500E+00  0.00000E+00  0.00000E+00  0.00000E+00    0.20135E+02  0.18618E+02 -0.38753E+02 -0.22513E+01  0.20215E+01  0.15857E+02      982.00
  0.45869E+00  0.64740E+02    0.25000E+00  0.25000E+00 -0.50000E+00  0.00000E+00  0.00000E+00  0.00000E+00    0.20161E+02  0.18661E+02 -0.38822E+02 -0.21886E+01  0.19362E+01  0.16051E+02      982.00
  0.48118E+00  0.64952E+02    0.26250E+00  0.26250E+00 -0.52500E+00  0.00000E+00  0.00000E+00  0.00000E+00    0.20189E+02  0.18697E+02 -0.38886E+02 -0.21313E+01  0.18589E+01  0.16236E+02      982.00
  0.50363E+00  0.65152E+02    0.27500E+00  0.27500E+00 -0.55000E+00  0.00000E+00  0.00000E+00  0.00000E+00    0.20217E+02  0.18728E+02 -0.38945E+02 -0.20803E+01  0.17895E+01  0.16410E+02      982.00
  0.52604E+00  0.65339E+02    0.28750E+00  0.28750E+00 -0.57500E+00  0.00000E+00  0.00000E+00  0.00000E+00    0.20243E+02  0.18758E+02 -0.39001E+02 -0.20330E+01  0.17217E+01  0.16571E+02      982.00
  0.54843E+00  0.65515E+02    0.30000E+00  0.30000E+00 -0.60000E+00  0.00000E+00  0.00000E+00  0.00000E+00    0.20274E+02  0.18778E+02 -0.39052E+02 -0.19950E+01  0.16680E+01  0.16722E+02      982.00
  0.57078E+00  0.65679E+02    0.31250E+00  0.31250E+00 -0.62500E+00  0.00000E+00  0.00000E+00  0.00000E+00    0.20305E+02  0.18794E+02 -0.39099E+02 -0.19625E+01  0.16218E+01  0.16861E+02      982.00
  0.59310E+00  0.65832E+02    0.32500E+00  0.32500E+00 -0.65000E+00  0.00000E+00  0.00000E+00  0.00000E+00    0.20337E+02  0.18806E+02 -0.39143E+02 -0.19351E+01  0.15819E+01  0.16990E+02      982.00
  0.61540E+00  0.65980E+02    0.33750E+00  0.33750E+00 -0.67500E+00  0.00000E+00  0.00000E+00  0.00000E+00    0.20371E+02  0.18813E+02 -0.39184E+02 -0.19035E+01  0.15357E+01  0.17118E+02      982.00
  0.63767E+00  0.66102E+02    0.35000E+00  0.35000E+00 -0.70000E+00  0.00000E+00  0.00000E+00  0.00000E+00    0.20401E+02  0.18820E+02 -0.39221E+02 -0.18904E+01  0.15116E+01  0.17213E+02      982.00
  0.65992E+00  0.66217E+02    0.36250E+00  0.36250E+00 -0.72500E+00  0.00000E+00  0.00000E+00  0.00000E+00    0.20433E+02  0.18820E+02 -0.39253E+02 -0.18772E+01  0.14895E+01  0.17308E+02      982.00
  0.68215E+00  0.66315E+02    0.37500E+00  0.37500E+00 -0.75000E+00  0.00000E+00  0.00000E+00  0.00000E+00    0.20460E+02  0.18823E+02 -0.39283E+02 -0.18759E+01  0.14821E+01  0.17382E+02      982.00
  0.70436E+00  0.66442E+02    0.38750E+00  0.38750E+00 -0.77500E+00  0.00000E+00  0.00000E+00  0.00000E+00    0.20505E+02  0.18816E+02 -0.39322E+02 -0.18513E+01  0.14445E+01  0.17482E+02      982.00
  0.72656E+00  0.66539E+02    0.40000E+00  0.40000E+00 -0.80000E+00  0.00000E+00  0.00000E+00  0.00000E+00    0.20539E+02  0.18812E+02 -0.39351E+02 -0.18464E+01  0.14312E+01  0.17558E+02      982.00
  0.74874E+00  0.66630E+02    0.41250E+00  0.41250E+00 -0.82500E+00  0.00000E+00  0.00000E+00  0.00000E+00    0.20572E+02  0.18805E+02 -0.39378E+02 -0.18438E+01  0.14217E+01  0.17626E+02      982.00
  0.77090E+00  0.66714E+02    0.42500E+00  0.42500E+00 -0.85000E+00  0.00000E+00  0.00000E+00  0.00000E+00    0.20605E+02  0.18798E+02 -0.39403E+02 -0.18429E+01  0.14144E+01  0.17690E+02      982.00
  0.79305E+00  0.66793E+02    0.43750E+00  0.43750E+00 -0.87500E+00  0.00000E+00  0.00000E+00  0.00000E+00    0.20638E+02  0.18790E+02 -0.39427E+02 -0.18434E+01  0.14089E+01  0.17748E+02      982.00
  0.81518E+00  0.66866E+02    0.45000E+00  0.45000E+00 -0.90000E+00  0.00000E+00  0.00000E+00  0.00000E+00    0.20670E+02  0.18780E+02 -0.39449E+02 -0.18449E+01  0.14048E+01  0.17801E+02      982.00
  0.83731E+00  0.66960E+02    0.46250E+00  0.46250E+00 -0.92500E+00  0.00000E+00  0.00000E+00  0.00000E+00    0.20718E+02  0.18757E+02 -0.39474E+02 -0.18459E+01  0.13989E+01  0.17877E+02      982.00
  0.85941E+00  0.66996E+02    0.47500E+00  0.47500E+00 -0.95000E+00  0.00000E+00  0.00000E+00  0.00000E+00    0.20733E+02  0.18757E+02 -0.39490E+02 -0.18503E+01  0.13994E+01  0.17894E+02      982.00
  0.88152E+00  0.67078E+02    0.48750E+00  0.48750E+00 -0.97500E+00  0.00000E+00  0.00000E+00  0.00000E+00    0.20779E+02  0.18732E+02 -0.39511E+02 -0.18546E+01  0.13979E+01  0.17959E+02      982.00
  0.90361E+00  0.67131E+02    0.50000E+00  0.50000E+00 -0.10000E+01  0.00000E+00  0.00000E+00  0.00000E+00    0.20812E+02  0.18716E+02 -0.39527E+02 -0.18595E+01  0.13978E+01  0.17996E+02      982.00
