          Evm          Svm            E11          E22          E33          E23          E13          E12         SDEV11       SDEV22       SDEV33       SDEV23       SDEV13       SDEV12      TEMP
  0.00000E+00  0.59758E+02    0.00000E+00  0.00000E+00  0.00000E+00  0.00000E+00  0.00000E+00  0.00000E+00    0.22317E+02  0.14877E+02 -0.37194E+02 -0.26639E+01  0.38492E+00  0.11476E+02      982.00
  0.23341E-01  0.59915E+02    0.12500E-01  0.12500E-01 -0.25000E-01  0.00000E+00  0.00000E+00  0.00000E+00    0.22167E+02  0.15094E+02 -0.37262E+02 -0.26258E+01  0.47760E+00  0.11647E+02      982.00
  0.46662E-01  0.60112E+02    0.25000E-01  0.25000E-01 -0.50000E-01  0.00000E+00  0.00000E+00  0.00000E+00    0.22082E+02  0.15279E+02 -0.37360E+02 -0.25712E+01  0.58994E+00  0.11794E+02      982.00
  0.69969E-01  0.60327E+02    0.37500E-01  0.37500E-01 -0.75000E-01  0.00000E+00  0.00000E+00  0.00000E+00    0.22033E+02  0.15451E+02 -0.37484E+02 -0.25094E+01  0.73530E+00  0.11903E+02      982.00
  0.93269E-01  0.60541E+02    0.50000E-01  0.50000E-01 -0.10000E+00  0.00000E+00  0.00000E+00  0.00000E+00    0.22035E+02  0.15589E+02 -0.37624E+02 -0.24436E+01  0.90891E+00  0.11953E+02      982.00
  0.11657E+00  0.60702E+02    0.62500E-01  0.62500E-01 -0.12500E+00  0.00000E+00  0.00000E+00  0.00000E+00    0.22094E+02  0.15658E+02 -0.37752E+02 -0.23604E+01  0.11034E+01  0.11925E+02      982.00
  0.13990E+00  0.60834E+02    0.75000E-01  0.75000E-01 -0.15000E+00  0.00000E+00  0.00000E+00  0.00000E+00    0.22219E+02  0.15655E+02 -0.37874E+02 -0.22368E+01  0.13035E+01  0.11846E+02      982.00
  0.16324E+00  0.60962E+02    0.87500E-01  0.87500E-01 -0.17500E+00  0.00000E+00  0.00000E+00  0.00000E+00    0.22381E+02  0.15613E+02 -0.37994E+02 -0.20597E+01  0.14987E+01  0.11755E+02      982.00
  0.18661E+00  0.61112E+02    0.10000E+00  0.10000E+00 -0.20000E+00  0.00000E+00  0.00000E+00  0.00000E+00    0.22567E+02  0.15553E+02 -0.38119E+02 -0.18429E+01  0.16739E+01  0.11686E+02      982.00
  0.21001E+00  0.61295E+02    0.11250E+00  0.11250E+00 -0.22500E+00  0.00000E+00  0.00000E+00  0.00000E+00    0.22769E+02  0.15481E+02 -0.38250E+02 -0.16092E+01  0.18224E+01  0.11655E+02      982.00
  0.23341E+00  0.61510E+02    0.12500E+00  0.12500E+00 -0.25000E+00  0.00000E+00  0.00000E+00  0.00000E+00    0.22970E+02  0.15416E+02 -0.38386E+02 -0.13817E+01  0.19396E+01  0.11667E+02      982.00
  0.25681E+00  0.61751E+02    0.13750E+00  0.13750E+00 -0.27500E+00  0.00000E+00  0.00000E+00  0.00000E+00    0.23170E+02  0.15354E+02 -0.38524E+02 -0.11696E+01  0.20315E+01  0.11714E+02      982.00
  0.28020E+00  0.62019E+02    0.15000E+00  0.15000E+00 -0.30000E+00  0.00000E+00  0.00000E+00  0.00000E+00    0.23362E+02  0.15303E+02 -0.38665E+02 -0.97816E+00  0.20965E+01  0.11802E+02      982.00
  0.30358E+00  0.62303E+02    0.16250E+00  0.16250E+00 -0.32500E+00  0.00000E+00  0.00000E+00  0.00000E+00    0.23539E+02  0.15268E+02 -0.38807E+02 -0.82509E+00  0.21403E+01  0.11917E+02      982.00
  0.32694E+00  0.62609E+02    0.17500E+00  0.17500E+00 -0.35000E+00  0.00000E+00  0.00000E+00  0.00000E+00    0.23711E+02  0.15242E+02 -0.38952E+02 -0.68656E+00  0.21629E+01  0.12067E+02      982.00
  0.35027E+00  0.62876E+02    0.18750E+00  0.18750E+00 -0.37500E+00  0.00000E+00  0.00000E+00  0.00000E+00    0.23858E+02  0.15220E+02 -0.39078E+02 -0.60262E+00  0.21758E+01  0.12195E+02      982.00
  0.37358E+00  0.63171E+02    0.20000E+00  0.20000E+00 -0.40000E+00  0.00000E+00  0.00000E+00  0.00000E+00    0.24014E+02  0.15201E+02 -0.39214E+02 -0.53724E+00  0.21770E+01  0.12345E+02      982.00
  0.39686E+00  0.63460E+02    0.21250E+00  0.21250E+00 -0.42500E+00  0.00000E+00  0.00000E+00  0.00000E+00    0.24171E+02  0.15176E+02 -0.39347E+02 -0.49931E+00  0.21690E+01  0.12493E+02      982.00
  0.42011E+00  0.63759E+02    0.22500E+00  0.22500E+00 -0.45000E+00  0.00000E+00  0.00000E+00  0.00000E+00    0.24342E+02  0.15142E+02 -0.39484E+02 -0.48661E+00  0.21539E+01  0.12639E+02      982.00
  0.44333E+00  0.64002E+02    0.23750E+00  0.23750E+00 -0.47500E+00  0.00000E+00  0.00000E+00  0.00000E+00    0.24495E+02  0.15104E+02 -0.39599E+02 -0.50450E+00  0.21454E+01  0.12745E+02      982.00
  0.46653E+00  0.64289E+02    0.25000E+00  0.25000E+00 -0.50000E+00  0.00000E+00  0.00000E+00  0.00000E+00    0.24683E+02  0.15051E+02 -0.39734E+02 -0.54494E+00  0.21365E+01  0.12866E+02      982.00
  0.48971E+00  0.64539E+02    0.26250E+00  0.26250E+00 -0.52500E+00  0.00000E+00  0.00000E+00  0.00000E+00    0.24879E+02  0.14974E+02 -0.39853E+02 -0.61409E+00  0.21242E+01  0.12954E+02      982.00
  0.51287E+00  0.64788E+02    0.27500E+00  0.27500E+00 -0.55000E+00  0.00000E+00  0.00000E+00  0.00000E+00    0.25086E+02  0.14890E+02 -0.39976E+02 -0.70987E+00  0.21232E+01  0.13023E+02      982.00
  0.53600E+00  0.65012E+02    0.28750E+00  0.28750E+00 -0.57500E+00  0.00000E+00  0.00000E+00  0.00000E+00    0.25299E+02  0.14792E+02 -0.40092E+02 -0.83133E+00  0.21288E+01  0.13059E+02      982.00
  0.55913E+00  0.65226E+02    0.30000E+00  0.30000E+00 -0.60000E+00  0.00000E+00  0.00000E+00  0.00000E+00    0.25532E+02  0.14678E+02 -0.40210E+02 -0.97843E+00  0.21413E+01  0.13059E+02      982.00
  0.58225E+00  0.65438E+02    0.31250E+00  0.31250E+00 -0.62500E+00  0.00000E+00  0.00000E+00  0.00000E+00    0.25768E+02  0.14565E+02 -0.40333E+02 -0.11438E+01  0.21646E+01  0.13037E+02      982.00
  0.60536E+00  0.65645E+02    0.32500E+00  0.32500E+00 -0.65000E+00  0.00000E+00  0.00000E+00  0.00000E+00    0.26001E+02  0.14459E+02 -0.40460E+02 -0.13209E+01  0.21954E+01  0.12992E+02      982.00
  0.62847E+00  0.65846E+02    0.33750E+00  0.33750E+00 -0.67500E+00  0.00000E+00  0.00000E+00  0.00000E+00    0.26222E+02  0.14367E+02 -0.40589E+02 -0.15020E+01  0.22308E+01  0.12931E+02      982.00
  0.65159E+00  0.66042E+02    0.35000E+00  0.35000E+00 -0.70000E+00  0.00000E+00  0.00000E+00  0.00000E+00    0.26429E+02  0.14293E+02 -0.40722E+02 -0.16804E+01  0.22676E+01  0.12858E+02      982.00
  0.67471E+00  0.66234E+02    0.36250E+00  0.36250E+00 -0.72500E+00  0.00000E+00  0.00000E+00  0.00000E+00    0.26617E+02  0.14241E+02 -0.40858E+02 -0.18509E+01  0.23034E+01  0.12778E+02      982.00
  0.69785E+00  0.66422E+02    0.37500E+00  0.37500E+00 -0.75000E+00  0.00000E+00  0.00000E+00  0.00000E+00    0.26784E+02  0.14211E+02 -0.40995E+02 -0.20100E+01  0.23362E+01  0.12694E+02      982.00
  0.72099E+00  0.66606E+02    0.38750E+00  0.38750E+00 -0.77500E+00  0.00000E+00  0.00000E+00  0.00000E+00    0.26940E+02  0.14195E+02 -0.41135E+02 -0.21612E+01  0.23659E+01  0.12604E+02      982.00
  0.74415E+00  0.66783E+02    0.40000E+00  0.40000E+00 -0.80000E+00  0.00000E+00  0.00000E+00  0.00000E+00    0.27067E+02  0.14206E+02 -0.41273E+02 -0.22920E+01  0.23894E+01  0.12520E+02      982.00
  0.76733E+00  0.66955E+02    0.41250E+00  0.41250E+00 -0.82500E+00  0.00000E+00  0.00000E+00  0.00000E+00    0.27176E+02  0.14235E+02 -0.41411E+02 -0.24082E+01  0.24075E+01  0.12438E+02      982.00
  0.79052E+00  0.67130E+02    0.42500E+00  0.42500E+00 -0.85000E+00  0.00000E+00  0.00000E+00  0.00000E+00    0.27275E+02  0.14279E+02 -0.41555E+02 -0.25126E+01  0.24200E+01  0.12356E+02      982.00
  0.81373E+00  0.67285E+02    0.43750E+00  0.43750E+00 -0.87500E+00  0.00000E+00  0.00000E+00  0.00000E+00    0.27360E+02  0.14324E+02 -0.41685E+02 -0.26090E+01  0.24288E+01  0.12276E+02      982.00
  0.83696E+00  0.67438E+02    0.45000E+00  0.45000E+00 -0.90000E+00  0.00000E+00  0.00000E+00  0.00000E+00    0.27425E+02  0.14390E+02 -0.41815E+02 -0.26858E+01  0.24311E+01  0.12206E+02      982.00
  0.86022E+00  0.67585E+02    0.46250E+00  0.46250E+00 -0.92500E+00  0.00000E+00  0.00000E+00  0.00000E+00    0.27479E+02  0.14463E+02 -0.41942E+02 -0.27516E+01  0.24287E+01  0.12141E+02      982.00
  0.88349E+00  0.67725E+02    0.47500E+00  0.47500E+00 -0.95000E+00  0.00000E+00  0.00000E+00  0.00000E+00    0.27523E+02  0.14541E+02 -0.42065E+02 -0.28078E+01  0.24222E+01  0.12080E+02      982.00
  0.90678E+00  0.67849E+02    0.48750E+00  0.48750E+00 -0.97500E+00  0.00000E+00  0.00000E+00  0.00000E+00    0.27564E+02  0.14609E+02 -0.42173E+02 -0.28650E+01  0.24127E+01  0.12024E+02      982.00
  0.93009E+00  0.67977E+02    0.50000E+00  0.50000E+00 -0.10000E+01  0.00000E+00  0.00000E+00  0.00000E+00    0.27594E+02  0.14694E+02 -0.42288E+02 -0.29048E+01  0.23985E+01  0.11972E+02      982.00
