          Evm          Svm            E11          E22          E33          E23          E13          E12         SDEV11       SDEV22       SDEV33       SDEV23       SDEV13       SDEV12      TEMP
  0.00000E+00  0.63785E+02    0.00000E+00  0.00000E+00  0.00000E+00  0.00000E+00  0.00000E+00  0.00000E+00    0.21148E+02  0.20267E+02 -0.41416E+02 -0.13625E+01  0.15391E+01  0.80821E+01      982.00
  0.24349E-01  0.63798E+02    0.12500E-01  0.12500E-01 -0.25000E-01  0.00000E+00  0.00000E+00  0.00000E+00    0.21667E+02  0.19725E+02 -0.41392E+02 -0.12550E+01  0.15226E+01  0.81820E+01      982.00
  0.48678E-01  0.63826E+02    0.25000E-01  0.25000E-01 -0.50000E-01  0.00000E+00  0.00000E+00  0.00000E+00    0.22032E+02  0.19340E+02 -0.41373E+02 -0.11596E+01  0.15644E+01  0.82783E+01      982.00
  0.72986E-01  0.63878E+02    0.37500E-01  0.37500E-01 -0.75000E-01  0.00000E+00  0.00000E+00  0.00000E+00    0.22322E+02  0.19043E+02 -0.41366E+02 -0.10917E+01  0.16147E+01  0.83858E+01      982.00
  0.97270E-01  0.63960E+02    0.50000E-01  0.50000E-01 -0.10000E+00  0.00000E+00  0.00000E+00  0.00000E+00    0.22559E+02  0.18816E+02 -0.41374E+02 -0.10501E+01  0.16618E+01  0.85084E+01      982.00
  0.12153E+00  0.64076E+02    0.62500E-01  0.62500E-01 -0.12500E+00  0.00000E+00  0.00000E+00  0.00000E+00    0.22750E+02  0.18652E+02 -0.41402E+02 -0.10292E+01  0.17041E+01  0.86481E+01      982.00
  0.14576E+00  0.64218E+02    0.75000E-01  0.75000E-01 -0.15000E+00  0.00000E+00  0.00000E+00  0.00000E+00    0.22925E+02  0.18522E+02 -0.41447E+02 -0.10299E+01  0.17361E+01  0.87941E+01      982.00
  0.16996E+00  0.64395E+02    0.87500E-01  0.87500E-01 -0.17500E+00  0.00000E+00  0.00000E+00  0.00000E+00    0.23070E+02  0.18443E+02 -0.41512E+02 -0.10420E+01  0.17657E+01  0.89578E+01      982.00
  0.19414E+00  0.64588E+02    0.10000E+00  0.10000E+00 -0.20000E+00  0.00000E+00  0.00000E+00  0.00000E+00    0.23203E+02  0.18385E+02 -0.41588E+02 -0.10660E+01  0.17858E+01  0.91240E+01      982.00
  0.21828E+00  0.64817E+02    0.11250E+00  0.11250E+00 -0.22500E+00  0.00000E+00  0.00000E+00  0.00000E+00    0.23324E+02  0.18361E+02 -0.41684E+02 -0.10987E+01  0.18064E+01  0.93058E+01      982.00
  0.24240E+00  0.65055E+02    0.12500E+00  0.12500E+00 -0.25000E+00  0.00000E+00  0.00000E+00  0.00000E+00    0.23435E+02  0.18353E+02 -0.41788E+02 -0.11384E+01  0.18200E+01  0.94869E+01      982.00
  0.26649E+00  0.65315E+02    0.13750E+00  0.13750E+00 -0.27500E+00  0.00000E+00  0.00000E+00  0.00000E+00    0.23538E+02  0.18365E+02 -0.41904E+02 -0.11841E+01  0.18317E+01  0.96759E+01      982.00
  0.29054E+00  0.65574E+02    0.15000E+00  0.15000E+00 -0.30000E+00  0.00000E+00  0.00000E+00  0.00000E+00    0.23622E+02  0.18403E+02 -0.42025E+02 -0.12340E+01  0.18479E+01  0.98478E+01      982.00
  0.31458E+00  0.65835E+02    0.16250E+00  0.16250E+00 -0.32500E+00  0.00000E+00  0.00000E+00  0.00000E+00    0.23695E+02  0.18455E+02 -0.42150E+02 -0.12862E+01  0.18622E+01  0.10014E+02      982.00
  0.33859E+00  0.66067E+02    0.17500E+00  0.17500E+00 -0.35000E+00  0.00000E+00  0.00000E+00  0.00000E+00    0.23749E+02  0.18514E+02 -0.42263E+02 -0.13372E+01  0.18723E+01  0.10160E+02      982.00
  0.36258E+00  0.66322E+02    0.18750E+00  0.18750E+00 -0.37500E+00  0.00000E+00  0.00000E+00  0.00000E+00    0.23804E+02  0.18584E+02 -0.42388E+02 -0.13915E+01  0.18825E+01  0.10313E+02      982.00
  0.38654E+00  0.66584E+02    0.20000E+00  0.20000E+00 -0.40000E+00  0.00000E+00  0.00000E+00  0.00000E+00    0.23857E+02  0.18664E+02 -0.42521E+02 -0.14464E+01  0.18962E+01  0.10456E+02      982.00
  0.41049E+00  0.66820E+02    0.21250E+00  0.21250E+00 -0.42500E+00  0.00000E+00  0.00000E+00  0.00000E+00    0.23897E+02  0.18742E+02 -0.42640E+02 -0.15001E+01  0.19012E+01  0.10593E+02      982.00
  0.43442E+00  0.67045E+02    0.22500E+00  0.22500E+00 -0.45000E+00  0.00000E+00  0.00000E+00  0.00000E+00    0.23930E+02  0.18824E+02 -0.42753E+02 -0.15529E+01  0.19045E+01  0.10721E+02      982.00
  0.45833E+00  0.67258E+02    0.23750E+00  0.23750E+00 -0.47500E+00  0.00000E+00  0.00000E+00  0.00000E+00    0.23954E+02  0.18907E+02 -0.42861E+02 -0.16042E+01  0.19061E+01  0.10840E+02      982.00
  0.48223E+00  0.67469E+02    0.25000E+00  0.25000E+00 -0.50000E+00  0.00000E+00  0.00000E+00  0.00000E+00    0.23971E+02  0.18998E+02 -0.42969E+02 -0.16560E+01  0.19050E+01  0.10958E+02      982.00
  0.50611E+00  0.67654E+02    0.26250E+00  0.26250E+00 -0.52500E+00  0.00000E+00  0.00000E+00  0.00000E+00    0.23981E+02  0.19082E+02 -0.43063E+02 -0.17036E+01  0.19040E+01  0.11061E+02      982.00
  0.52998E+00  0.67801E+02    0.27500E+00  0.27500E+00 -0.55000E+00  0.00000E+00  0.00000E+00  0.00000E+00    0.23980E+02  0.19159E+02 -0.43139E+02 -0.17437E+01  0.18992E+01  0.11143E+02      982.00
  0.55384E+00  0.67964E+02    0.28750E+00  0.28750E+00 -0.57500E+00  0.00000E+00  0.00000E+00  0.00000E+00    0.23983E+02  0.19239E+02 -0.43223E+02 -0.17876E+01  0.18967E+01  0.11231E+02      982.00
  0.57769E+00  0.68116E+02    0.30000E+00  0.30000E+00 -0.60000E+00  0.00000E+00  0.00000E+00  0.00000E+00    0.23983E+02  0.19318E+02 -0.43301E+02 -0.18294E+01  0.18933E+01  0.11312E+02      982.00
  0.60153E+00  0.68256E+02    0.31250E+00  0.31250E+00 -0.62500E+00  0.00000E+00  0.00000E+00  0.00000E+00    0.23980E+02  0.19394E+02 -0.43373E+02 -0.18692E+01  0.18895E+01  0.11387E+02      982.00
  0.62536E+00  0.68385E+02    0.32500E+00  0.32500E+00 -0.65000E+00  0.00000E+00  0.00000E+00  0.00000E+00    0.23974E+02  0.19467E+02 -0.43441E+02 -0.19069E+01  0.18852E+01  0.11456E+02      982.00
  0.64918E+00  0.68487E+02    0.33750E+00  0.33750E+00 -0.67500E+00  0.00000E+00  0.00000E+00  0.00000E+00    0.23954E+02  0.19540E+02 -0.43494E+02 -0.19443E+01  0.18769E+01  0.11514E+02      982.00
  0.67300E+00  0.68594E+02    0.35000E+00  0.35000E+00 -0.70000E+00  0.00000E+00  0.00000E+00  0.00000E+00    0.23942E+02  0.19606E+02 -0.43549E+02 -0.19788E+01  0.18724E+01  0.11571E+02      982.00
  0.69680E+00  0.68697E+02    0.36250E+00  0.36250E+00 -0.72500E+00  0.00000E+00  0.00000E+00  0.00000E+00    0.23932E+02  0.19671E+02 -0.43603E+02 -0.20111E+01  0.18680E+01  0.11625E+02      982.00
  0.72060E+00  0.68793E+02    0.37500E+00  0.37500E+00 -0.75000E+00  0.00000E+00  0.00000E+00  0.00000E+00    0.23921E+02  0.19732E+02 -0.43653E+02 -0.20416E+01  0.18636E+01  0.11675E+02      982.00
  0.74440E+00  0.68875E+02    0.38750E+00  0.38750E+00 -0.77500E+00  0.00000E+00  0.00000E+00  0.00000E+00    0.23897E+02  0.19798E+02 -0.43695E+02 -0.20774E+01  0.18568E+01  0.11720E+02      982.00
  0.76819E+00  0.68959E+02    0.40000E+00  0.40000E+00 -0.80000E+00  0.00000E+00  0.00000E+00  0.00000E+00    0.23885E+02  0.19855E+02 -0.43739E+02 -0.21051E+01  0.18525E+01  0.11763E+02      982.00
  0.79198E+00  0.69034E+02    0.41250E+00  0.41250E+00 -0.82500E+00  0.00000E+00  0.00000E+00  0.00000E+00    0.23871E+02  0.19907E+02 -0.43778E+02 -0.21309E+01  0.18486E+01  0.11802E+02      982.00
  0.81576E+00  0.69104E+02    0.42500E+00  0.42500E+00 -0.85000E+00  0.00000E+00  0.00000E+00  0.00000E+00    0.23858E+02  0.19956E+02 -0.43815E+02 -0.21553E+01  0.18449E+01  0.11837E+02      982.00
  0.83953E+00  0.69168E+02    0.43750E+00  0.43750E+00 -0.87500E+00  0.00000E+00  0.00000E+00  0.00000E+00    0.23845E+02  0.20004E+02 -0.43848E+02 -0.21784E+01  0.18415E+01  0.11871E+02      982.00
  0.86331E+00  0.69228E+02    0.45000E+00  0.45000E+00 -0.90000E+00  0.00000E+00  0.00000E+00  0.00000E+00    0.23831E+02  0.20048E+02 -0.43879E+02 -0.22004E+01  0.18384E+01  0.11902E+02      982.00
  0.88708E+00  0.69288E+02    0.46250E+00  0.46250E+00 -0.92500E+00  0.00000E+00  0.00000E+00  0.00000E+00    0.23806E+02  0.20104E+02 -0.43910E+02 -0.22306E+01  0.18333E+01  0.11935E+02      982.00
  0.91084E+00  0.69339E+02    0.47500E+00  0.47500E+00 -0.95000E+00  0.00000E+00  0.00000E+00  0.00000E+00    0.23792E+02  0.20144E+02 -0.43936E+02 -0.22517E+01  0.18298E+01  0.11962E+02      982.00
  0.93460E+00  0.69385E+02    0.48750E+00  0.48750E+00 -0.97500E+00  0.00000E+00  0.00000E+00  0.00000E+00    0.23779E+02  0.20181E+02 -0.43960E+02 -0.22706E+01  0.18275E+01  0.11986E+02      982.00
  0.95836E+00  0.69387E+02    0.50000E+00  0.50000E+00 -0.10000E+01  0.00000E+00  0.00000E+00  0.00000E+00    0.23789E+02  0.20174E+02 -0.43963E+02 -0.22598E+01  0.18179E+01  0.11985E+02      982.00
