          Evm          Svm            E11          E22          E33          E23          E13          E12         SDEV11       SDEV22       SDEV33       SDEV23       SDEV13       SDEV12      TEMP
  0.00000E+00  0.58589E+02    0.00000E+00  0.00000E+00  0.00000E+00  0.00000E+00  0.00000E+00  0.00000E+00    0.25323E+02  0.12264E+02 -0.37586E+02 -0.52266E+01  0.37213E+01 -0.92977E+00      982.00
  0.24057E-01  0.58372E+02    0.12500E-01  0.12500E-01 -0.25000E-01  0.00000E+00  0.00000E+00  0.00000E+00    0.25261E+02  0.12243E+02 -0.37504E+02 -0.50926E+01  0.34394E+01 -0.86016E+00      982.00
  0.48151E-01  0.58214E+02    0.25000E-01  0.25000E-01 -0.50000E-01  0.00000E+00  0.00000E+00  0.00000E+00    0.25235E+02  0.12217E+02 -0.37452E+02 -0.49535E+01  0.31771E+01 -0.80929E+00      982.00
  0.72276E-01  0.58154E+02    0.37500E-01  0.37500E-01 -0.75000E-01  0.00000E+00  0.00000E+00  0.00000E+00    0.25261E+02  0.12190E+02 -0.37451E+02 -0.48360E+01  0.29420E+01 -0.77608E+00      982.00
  0.96426E-01  0.58211E+02    0.50000E-01  0.50000E-01 -0.10000E+00  0.00000E+00  0.00000E+00  0.00000E+00    0.25345E+02  0.12171E+02 -0.37516E+02 -0.47429E+01  0.27373E+01 -0.75913E+00      982.00
  0.12059E+00  0.58404E+02    0.62500E-01  0.62500E-01 -0.12500E+00  0.00000E+00  0.00000E+00  0.00000E+00    0.25497E+02  0.12156E+02 -0.37653E+02 -0.46866E+01  0.25838E+01 -0.76708E+00      982.00
  0.14477E+00  0.58718E+02    0.75000E-01  0.75000E-01 -0.15000E+00  0.00000E+00  0.00000E+00  0.00000E+00    0.25706E+02  0.12152E+02 -0.37858E+02 -0.46608E+01  0.24697E+01 -0.79375E+00      982.00
  0.16895E+00  0.59108E+02    0.87500E-01  0.87500E-01 -0.17500E+00  0.00000E+00  0.00000E+00  0.00000E+00    0.25947E+02  0.12158E+02 -0.38105E+02 -0.46589E+01  0.23771E+01 -0.83699E+00      982.00
  0.19312E+00  0.59598E+02    0.10000E+00  0.10000E+00 -0.20000E+00  0.00000E+00  0.00000E+00  0.00000E+00    0.26235E+02  0.12174E+02 -0.38409E+02 -0.46856E+01  0.23175E+01 -0.89623E+00      982.00
  0.21729E+00  0.60137E+02    0.11250E+00  0.11250E+00 -0.22500E+00  0.00000E+00  0.00000E+00  0.00000E+00    0.26528E+02  0.12217E+02 -0.38745E+02 -0.47210E+01  0.22866E+01 -0.95760E+00      982.00
  0.24145E+00  0.60696E+02    0.12500E+00  0.12500E+00 -0.25000E+00  0.00000E+00  0.00000E+00  0.00000E+00    0.26829E+02  0.12262E+02 -0.39090E+02 -0.47683E+01  0.22599E+01 -0.10296E+01      982.00
  0.26560E+00  0.61263E+02    0.13750E+00  0.13750E+00 -0.27500E+00  0.00000E+00  0.00000E+00  0.00000E+00    0.27114E+02  0.12333E+02 -0.39446E+02 -0.48147E+01  0.22504E+01 -0.10936E+01      982.00
  0.28975E+00  0.61819E+02    0.15000E+00  0.15000E+00 -0.30000E+00  0.00000E+00  0.00000E+00  0.00000E+00    0.27384E+02  0.12413E+02 -0.39797E+02 -0.48594E+01  0.22456E+01 -0.11551E+01      982.00
  0.31389E+00  0.62352E+02    0.16250E+00  0.16250E+00 -0.32500E+00  0.00000E+00  0.00000E+00  0.00000E+00    0.27635E+02  0.12500E+02 -0.40135E+02 -0.49001E+01  0.22424E+01 -0.12134E+01      982.00
  0.33803E+00  0.62856E+02    0.17500E+00  0.17500E+00 -0.35000E+00  0.00000E+00  0.00000E+00  0.00000E+00    0.27867E+02  0.12590E+02 -0.40458E+02 -0.49355E+01  0.22395E+01 -0.12678E+01      982.00
  0.36216E+00  0.63328E+02    0.18750E+00  0.18750E+00 -0.37500E+00  0.00000E+00  0.00000E+00  0.00000E+00    0.28079E+02  0.12683E+02 -0.40762E+02 -0.49650E+01  0.22361E+01 -0.13184E+01      982.00
  0.38630E+00  0.63786E+02    0.20000E+00  0.20000E+00 -0.40000E+00  0.00000E+00  0.00000E+00  0.00000E+00    0.28283E+02  0.12773E+02 -0.41057E+02 -0.49974E+01  0.22317E+01 -0.13754E+01      982.00
  0.41044E+00  0.64191E+02    0.21250E+00  0.21250E+00 -0.42500E+00  0.00000E+00  0.00000E+00  0.00000E+00    0.28455E+02  0.12867E+02 -0.41322E+02 -0.50122E+01  0.22255E+01 -0.14177E+01      982.00
  0.43458E+00  0.64564E+02    0.22500E+00  0.22500E+00 -0.45000E+00  0.00000E+00  0.00000E+00  0.00000E+00    0.28610E+02  0.12959E+02 -0.41569E+02 -0.50222E+01  0.22185E+01 -0.14566E+01      982.00
  0.45872E+00  0.64916E+02    0.23750E+00  0.23750E+00 -0.47500E+00  0.00000E+00  0.00000E+00  0.00000E+00    0.28752E+02  0.13051E+02 -0.41803E+02 -0.50327E+01  0.22125E+01 -0.14933E+01      982.00
  0.48287E+00  0.65232E+02    0.25000E+00  0.25000E+00 -0.50000E+00  0.00000E+00  0.00000E+00  0.00000E+00    0.28877E+02  0.13138E+02 -0.42015E+02 -0.50338E+01  0.22034E+01 -0.15264E+01      982.00
  0.50702E+00  0.65521E+02    0.26250E+00  0.26250E+00 -0.52500E+00  0.00000E+00  0.00000E+00  0.00000E+00    0.28989E+02  0.13222E+02 -0.42211E+02 -0.50305E+01  0.21933E+01 -0.15569E+01      982.00
  0.53118E+00  0.65791E+02    0.27500E+00  0.27500E+00 -0.55000E+00  0.00000E+00  0.00000E+00  0.00000E+00    0.29090E+02  0.13304E+02 -0.42394E+02 -0.50269E+01  0.21838E+01 -0.15862E+01      982.00
  0.55535E+00  0.66069E+02    0.28750E+00  0.28750E+00 -0.57500E+00  0.00000E+00  0.00000E+00  0.00000E+00    0.29197E+02  0.13388E+02 -0.42584E+02 -0.50179E+01  0.21686E+01 -0.16199E+01      982.00
  0.57952E+00  0.66290E+02    0.30000E+00  0.30000E+00 -0.60000E+00  0.00000E+00  0.00000E+00  0.00000E+00    0.29276E+02  0.13462E+02 -0.42737E+02 -0.50041E+01  0.21555E+01 -0.16438E+01      982.00
  0.60369E+00  0.66494E+02    0.31250E+00  0.31250E+00 -0.62500E+00  0.00000E+00  0.00000E+00  0.00000E+00    0.29347E+02  0.13533E+02 -0.42880E+02 -0.49887E+01  0.21426E+01 -0.16651E+01      982.00
  0.62788E+00  0.66682E+02    0.32500E+00  0.32500E+00 -0.65000E+00  0.00000E+00  0.00000E+00  0.00000E+00    0.29411E+02  0.13601E+02 -0.43013E+02 -0.49723E+01  0.21296E+01 -0.16847E+01      982.00
  0.65207E+00  0.66855E+02    0.33750E+00  0.33750E+00 -0.67500E+00  0.00000E+00  0.00000E+00  0.00000E+00    0.29469E+02  0.13666E+02 -0.43136E+02 -0.49550E+01  0.21166E+01 -0.17030E+01      982.00
  0.67626E+00  0.66999E+02    0.35000E+00  0.35000E+00 -0.70000E+00  0.00000E+00  0.00000E+00  0.00000E+00    0.29513E+02  0.13725E+02 -0.43238E+02 -0.49435E+01  0.21093E+01 -0.17157E+01      982.00
  0.70046E+00  0.67165E+02    0.36250E+00  0.36250E+00 -0.72500E+00  0.00000E+00  0.00000E+00  0.00000E+00    0.29569E+02  0.13788E+02 -0.43357E+02 -0.49218E+01  0.20924E+01 -0.17360E+01      982.00
  0.72467E+00  0.67314E+02    0.37500E+00  0.37500E+00 -0.75000E+00  0.00000E+00  0.00000E+00  0.00000E+00    0.29617E+02  0.13846E+02 -0.43463E+02 -0.49063E+01  0.20814E+01 -0.17533E+01      982.00
  0.74888E+00  0.67402E+02    0.38750E+00  0.38750E+00 -0.77500E+00  0.00000E+00  0.00000E+00  0.00000E+00    0.29640E+02  0.13886E+02 -0.43526E+02 -0.48985E+01  0.20768E+01 -0.17597E+01      982.00
  0.77310E+00  0.67524E+02    0.40000E+00  0.40000E+00 -0.80000E+00  0.00000E+00  0.00000E+00  0.00000E+00    0.29676E+02  0.13938E+02 -0.43614E+02 -0.48830E+01  0.20657E+01 -0.17736E+01      982.00
  0.79732E+00  0.67637E+02    0.41250E+00  0.41250E+00 -0.82500E+00  0.00000E+00  0.00000E+00  0.00000E+00    0.29710E+02  0.13987E+02 -0.43697E+02 -0.48658E+01  0.20539E+01 -0.17862E+01      982.00
  0.82155E+00  0.67743E+02    0.42500E+00  0.42500E+00 -0.85000E+00  0.00000E+00  0.00000E+00  0.00000E+00    0.29740E+02  0.14034E+02 -0.43774E+02 -0.48486E+01  0.20422E+01 -0.17979E+01      982.00
  0.84578E+00  0.67774E+02    0.43750E+00  0.43750E+00 -0.87500E+00  0.00000E+00  0.00000E+00  0.00000E+00    0.29739E+02  0.14068E+02 -0.43807E+02 -0.48036E+01  0.20185E+01 -0.17979E+01      982.00
  0.87002E+00  0.67802E+02    0.45000E+00  0.45000E+00 -0.90000E+00  0.00000E+00  0.00000E+00  0.00000E+00    0.29740E+02  0.14097E+02 -0.43837E+02 -0.47653E+01  0.19975E+01 -0.18008E+01      982.00
  0.89426E+00  0.67831E+02    0.46250E+00  0.46250E+00 -0.92500E+00  0.00000E+00  0.00000E+00  0.00000E+00    0.29741E+02  0.14125E+02 -0.43866E+02 -0.47292E+01  0.19775E+01 -0.18037E+01      982.00
  0.91851E+00  0.67858E+02    0.47500E+00  0.47500E+00 -0.95000E+00  0.00000E+00  0.00000E+00  0.00000E+00    0.29742E+02  0.14151E+02 -0.43894E+02 -0.46952E+01  0.19586E+01 -0.18064E+01      982.00
  0.94277E+00  0.67896E+02    0.48750E+00  0.48750E+00 -0.97500E+00  0.00000E+00  0.00000E+00  0.00000E+00    0.29741E+02  0.14189E+02 -0.43930E+02 -0.46626E+01  0.19405E+01 -0.18112E+01      982.00
  0.96703E+00  0.67910E+02    0.50000E+00  0.50000E+00 -0.10000E+01  0.00000E+00  0.00000E+00  0.00000E+00    0.29741E+02  0.14206E+02 -0.43947E+02 -0.46344E+01  0.19245E+01 -0.18112E+01      982.00
