          Evm          Svm            E11          E22          E33          E23          E13          E12         SDEV11       SDEV22       SDEV33       SDEV23       SDEV13       SDEV12      TEMP
  0.00000E+00  0.56970E+02    0.00000E+00  0.00000E+00  0.00000E+00  0.00000E+00  0.00000E+00  0.00000E+00    0.15717E+02  0.17592E+02 -0.33309E+02 -0.45340E+01  0.10663E+01  0.15073E+02      982.00
  0.21925E-01  0.56861E+02    0.12500E-01  0.12500E-01 -0.25000E-01  0.00000E+00  0.00000E+00  0.00000E+00    0.15790E+02  0.17518E+02 -0.33308E+02 -0.42621E+01  0.12895E+01  0.15003E+02      982.00
  0.43892E-01  0.56915E+02    0.25000E-01  0.25000E-01 -0.50000E-01  0.00000E+00  0.00000E+00  0.00000E+00    0.15871E+02  0.17497E+02 -0.33368E+02 -0.40420E+01  0.14435E+01  0.15020E+02      982.00
  0.65877E-01  0.57103E+02    0.37500E-01  0.37500E-01 -0.75000E-01  0.00000E+00  0.00000E+00  0.00000E+00    0.15961E+02  0.17522E+02 -0.33483E+02 -0.38443E+01  0.15571E+01  0.15108E+02      982.00
  0.87866E-01  0.57389E+02    0.50000E-01  0.50000E-01 -0.10000E+00  0.00000E+00  0.00000E+00  0.00000E+00    0.16057E+02  0.17577E+02 -0.33634E+02 -0.36583E+01  0.16417E+01  0.15255E+02      982.00
  0.10984E+00  0.57760E+02    0.62500E-01  0.62500E-01 -0.12500E+00  0.00000E+00  0.00000E+00  0.00000E+00    0.16160E+02  0.17660E+02 -0.33820E+02 -0.34882E+01  0.17078E+01  0.15446E+02      982.00
  0.13180E+00  0.58177E+02    0.75000E-01  0.75000E-01 -0.15000E+00  0.00000E+00  0.00000E+00  0.00000E+00    0.16264E+02  0.17759E+02 -0.34024E+02 -0.33403E+01  0.17502E+01  0.15659E+02      982.00
  0.15373E+00  0.58619E+02    0.87500E-01  0.87500E-01 -0.17500E+00  0.00000E+00  0.00000E+00  0.00000E+00    0.16371E+02  0.17868E+02 -0.34239E+02 -0.31997E+01  0.17827E+01  0.15881E+02      982.00
  0.17564E+00  0.59087E+02    0.10000E+00  0.10000E+00 -0.20000E+00  0.00000E+00  0.00000E+00  0.00000E+00    0.16480E+02  0.17984E+02 -0.34464E+02 -0.30868E+01  0.18012E+01  0.16112E+02      982.00
  0.19751E+00  0.59559E+02    0.11250E+00  0.11250E+00 -0.22500E+00  0.00000E+00  0.00000E+00  0.00000E+00    0.16592E+02  0.18101E+02 -0.34692E+02 -0.29898E+01  0.18124E+01  0.16339E+02      982.00
  0.21935E+00  0.60024E+02    0.12500E+00  0.12500E+00 -0.25000E+00  0.00000E+00  0.00000E+00  0.00000E+00    0.16704E+02  0.18215E+02 -0.34919E+02 -0.29066E+01  0.18186E+01  0.16556E+02      982.00
  0.24117E+00  0.60459E+02    0.13750E+00  0.13750E+00 -0.27500E+00  0.00000E+00  0.00000E+00  0.00000E+00    0.16813E+02  0.18321E+02 -0.35135E+02 -0.28242E+01  0.18218E+01  0.16755E+02      982.00
  0.26296E+00  0.60886E+02    0.15000E+00  0.15000E+00 -0.30000E+00  0.00000E+00  0.00000E+00  0.00000E+00    0.16926E+02  0.18423E+02 -0.35349E+02 -0.27647E+01  0.18223E+01  0.16941E+02      982.00
  0.28473E+00  0.61284E+02    0.16250E+00  0.16250E+00 -0.32500E+00  0.00000E+00  0.00000E+00  0.00000E+00    0.17036E+02  0.18514E+02 -0.35550E+02 -0.27017E+01  0.18204E+01  0.17114E+02      982.00
  0.30649E+00  0.61658E+02    0.17500E+00  0.17500E+00 -0.35000E+00  0.00000E+00  0.00000E+00  0.00000E+00    0.17147E+02  0.18599E+02 -0.35745E+02 -0.26594E+01  0.18182E+01  0.17264E+02      982.00
  0.32823E+00  0.62005E+02    0.18750E+00  0.18750E+00 -0.37500E+00  0.00000E+00  0.00000E+00  0.00000E+00    0.17256E+02  0.18674E+02 -0.35930E+02 -0.26229E+01  0.18149E+01  0.17397E+02      982.00
  0.34996E+00  0.62333E+02    0.20000E+00  0.20000E+00 -0.40000E+00  0.00000E+00  0.00000E+00  0.00000E+00    0.17367E+02  0.18737E+02 -0.36104E+02 -0.25799E+01  0.18096E+01  0.17524E+02      982.00
  0.37168E+00  0.62625E+02    0.21250E+00  0.21250E+00 -0.42500E+00  0.00000E+00  0.00000E+00  0.00000E+00    0.17472E+02  0.18794E+02 -0.36266E+02 -0.25518E+01  0.18056E+01  0.17625E+02      982.00
  0.39339E+00  0.62892E+02    0.22500E+00  0.22500E+00 -0.45000E+00  0.00000E+00  0.00000E+00  0.00000E+00    0.17575E+02  0.18843E+02 -0.36418E+02 -0.25272E+01  0.18008E+01  0.17713E+02      982.00
  0.41511E+00  0.63134E+02    0.23750E+00  0.23750E+00 -0.47500E+00  0.00000E+00  0.00000E+00  0.00000E+00    0.17673E+02  0.18884E+02 -0.36558E+02 -0.25038E+01  0.17955E+01  0.17789E+02      982.00
  0.43682E+00  0.63358E+02    0.25000E+00  0.25000E+00 -0.50000E+00  0.00000E+00  0.00000E+00  0.00000E+00    0.17770E+02  0.18919E+02 -0.36689E+02 -0.24831E+01  0.17901E+01  0.17855E+02      982.00
  0.45854E+00  0.63562E+02    0.26250E+00  0.26250E+00 -0.52500E+00  0.00000E+00  0.00000E+00  0.00000E+00    0.17864E+02  0.18948E+02 -0.36812E+02 -0.24639E+01  0.17845E+01  0.17912E+02      982.00
  0.48025E+00  0.63749E+02    0.27500E+00  0.27500E+00 -0.55000E+00  0.00000E+00  0.00000E+00  0.00000E+00    0.17956E+02  0.18971E+02 -0.36926E+02 -0.24458E+01  0.17787E+01  0.17961E+02      982.00
  0.50198E+00  0.63891E+02    0.28750E+00  0.28750E+00 -0.57500E+00  0.00000E+00  0.00000E+00  0.00000E+00    0.18032E+02  0.18983E+02 -0.37015E+02 -0.24307E+01  0.17734E+01  0.17995E+02      982.00
  0.52370E+00  0.64066E+02    0.30000E+00  0.30000E+00 -0.60000E+00  0.00000E+00  0.00000E+00  0.00000E+00    0.18133E+02  0.18989E+02 -0.37122E+02 -0.24088E+01  0.17663E+01  0.18042E+02      982.00
  0.54543E+00  0.64210E+02    0.31250E+00  0.31250E+00 -0.62500E+00  0.00000E+00  0.00000E+00  0.00000E+00    0.18217E+02  0.18998E+02 -0.37215E+02 -0.23928E+01  0.17606E+01  0.18073E+02      982.00
  0.56717E+00  0.64342E+02    0.32500E+00  0.32500E+00 -0.65000E+00  0.00000E+00  0.00000E+00  0.00000E+00    0.18298E+02  0.19003E+02 -0.37301E+02 -0.23782E+01  0.17546E+01  0.18099E+02      982.00
  0.58890E+00  0.64463E+02    0.33750E+00  0.33750E+00 -0.67500E+00  0.00000E+00  0.00000E+00  0.00000E+00    0.18375E+02  0.19006E+02 -0.37381E+02 -0.23644E+01  0.17485E+01  0.18122E+02      982.00
  0.61065E+00  0.64575E+02    0.35000E+00  0.35000E+00 -0.70000E+00  0.00000E+00  0.00000E+00  0.00000E+00    0.18450E+02  0.19005E+02 -0.37456E+02 -0.23512E+01  0.17425E+01  0.18142E+02      982.00
  0.63240E+00  0.64677E+02    0.36250E+00  0.36250E+00 -0.72500E+00  0.00000E+00  0.00000E+00  0.00000E+00    0.18522E+02  0.19003E+02 -0.37525E+02 -0.23386E+01  0.17366E+01  0.18159E+02      982.00
  0.65416E+00  0.64772E+02    0.37500E+00  0.37500E+00 -0.75000E+00  0.00000E+00  0.00000E+00  0.00000E+00    0.18592E+02  0.18998E+02 -0.37590E+02 -0.23267E+01  0.17309E+01  0.18173E+02      982.00
  0.67592E+00  0.64860E+02    0.38750E+00  0.38750E+00 -0.77500E+00  0.00000E+00  0.00000E+00  0.00000E+00    0.18659E+02  0.18991E+02 -0.37651E+02 -0.23154E+01  0.17253E+01  0.18186E+02      982.00
  0.69769E+00  0.64941E+02    0.40000E+00  0.40000E+00 -0.80000E+00  0.00000E+00  0.00000E+00  0.00000E+00    0.18724E+02  0.18983E+02 -0.37707E+02 -0.23046E+01  0.17199E+01  0.18197E+02      982.00
  0.71946E+00  0.65016E+02    0.41250E+00  0.41250E+00 -0.82500E+00  0.00000E+00  0.00000E+00  0.00000E+00    0.18787E+02  0.18973E+02 -0.37760E+02 -0.22944E+01  0.17147E+01  0.18206E+02      982.00
  0.74124E+00  0.65086E+02    0.42500E+00  0.42500E+00 -0.85000E+00  0.00000E+00  0.00000E+00  0.00000E+00    0.18847E+02  0.18962E+02 -0.37809E+02 -0.22848E+01  0.17098E+01  0.18214E+02      982.00
  0.76303E+00  0.65150E+02    0.43750E+00  0.43750E+00 -0.87500E+00  0.00000E+00  0.00000E+00  0.00000E+00    0.18905E+02  0.18950E+02 -0.37855E+02 -0.22757E+01  0.17051E+01  0.18221E+02      982.00
  0.78482E+00  0.65198E+02    0.45000E+00  0.45000E+00 -0.90000E+00  0.00000E+00  0.00000E+00  0.00000E+00    0.18970E+02  0.18920E+02 -0.37889E+02 -0.22647E+01  0.17008E+01  0.18227E+02      982.00
  0.80661E+00  0.65258E+02    0.46250E+00  0.46250E+00 -0.92500E+00  0.00000E+00  0.00000E+00  0.00000E+00    0.19025E+02  0.18907E+02 -0.37932E+02 -0.22556E+01  0.16969E+01  0.18232E+02      982.00
  0.82841E+00  0.65309E+02    0.47500E+00  0.47500E+00 -0.95000E+00  0.00000E+00  0.00000E+00  0.00000E+00    0.19077E+02  0.18892E+02 -0.37969E+02 -0.22477E+01  0.16930E+01  0.18237E+02      982.00
  0.85021E+00  0.65358E+02    0.48750E+00  0.48750E+00 -0.97500E+00  0.00000E+00  0.00000E+00  0.00000E+00    0.19128E+02  0.18878E+02 -0.38005E+02 -0.22404E+01  0.16892E+01  0.18241E+02      982.00
  0.87201E+00  0.65377E+02    0.50000E+00  0.50000E+00 -0.10000E+01  0.00000E+00  0.00000E+00  0.00000E+00    0.19167E+02  0.18856E+02 -0.38023E+02 -0.22216E+01  0.16789E+01  0.18237E+02      982.00
