          Evm          Svm            E11          E22          E33          E23          E13          E12         SDEV11       SDEV22       SDEV33       SDEV23       SDEV13       SDEV12      TEMP
  0.00000E+00  0.55440E+02    0.00000E+00  0.00000E+00  0.00000E+00  0.00000E+00  0.00000E+00  0.00000E+00    0.21254E+02  0.13832E+02 -0.35087E+02 -0.11451E+01  0.33100E+01  0.86703E+01      982.00
  0.23733E-01  0.55330E+02    0.12500E-01  0.12500E-01 -0.25000E-01  0.00000E+00  0.00000E+00  0.00000E+00    0.20849E+02  0.14157E+02 -0.35006E+02 -0.13328E+01  0.31927E+01  0.88445E+01      982.00
  0.47459E-01  0.55367E+02    0.25000E-01  0.25000E-01 -0.50000E-01  0.00000E+00  0.00000E+00  0.00000E+00    0.20410E+02  0.14593E+02 -0.35003E+02 -0.15548E+01  0.30200E+01  0.91079E+01      982.00
  0.71166E-01  0.55528E+02    0.37500E-01  0.37500E-01 -0.75000E-01  0.00000E+00  0.00000E+00  0.00000E+00    0.19927E+02  0.15129E+02 -0.35056E+02 -0.18008E+01  0.28010E+01  0.94469E+01      982.00
  0.94840E-01  0.55765E+02    0.50000E-01  0.50000E-01 -0.10000E+00  0.00000E+00  0.00000E+00  0.00000E+00    0.19456E+02  0.15681E+02 -0.35137E+02 -0.20373E+01  0.25788E+01  0.98115E+01      982.00
  0.11847E+00  0.56050E+02    0.62500E-01  0.62500E-01 -0.12500E+00  0.00000E+00  0.00000E+00  0.00000E+00    0.19053E+02  0.16178E+02 -0.35230E+02 -0.22417E+01  0.23772E+01  0.10177E+02      982.00
  0.14204E+00  0.56381E+02    0.75000E-01  0.75000E-01 -0.15000E+00  0.00000E+00  0.00000E+00  0.00000E+00    0.18746E+02  0.16594E+02 -0.35340E+02 -0.24083E+01  0.21995E+01  0.10542E+02      982.00
  0.16554E+00  0.56754E+02    0.87500E-01  0.87500E-01 -0.17500E+00  0.00000E+00  0.00000E+00  0.00000E+00    0.18537E+02  0.16929E+02 -0.35467E+02 -0.25382E+01  0.20426E+01  0.10908E+02      982.00
  0.18898E+00  0.57157E+02    0.10000E+00  0.10000E+00 -0.20000E+00  0.00000E+00  0.00000E+00  0.00000E+00    0.18428E+02  0.17181E+02 -0.35609E+02 -0.26310E+01  0.19062E+01  0.11271E+02      982.00
  0.21234E+00  0.57578E+02    0.11250E+00  0.11250E+00 -0.22500E+00  0.00000E+00  0.00000E+00  0.00000E+00    0.18390E+02  0.17372E+02 -0.35762E+02 -0.26949E+01  0.17847E+01  0.11626E+02      982.00
  0.23563E+00  0.58001E+02    0.12500E+00  0.12500E+00 -0.25000E+00  0.00000E+00  0.00000E+00  0.00000E+00    0.18416E+02  0.17504E+02 -0.35920E+02 -0.27303E+01  0.16803E+01  0.11966E+02      982.00
  0.25886E+00  0.58399E+02    0.13750E+00  0.13750E+00 -0.27500E+00  0.00000E+00  0.00000E+00  0.00000E+00    0.18478E+02  0.17590E+02 -0.36069E+02 -0.27480E+01  0.15804E+01  0.12282E+02      982.00
  0.28202E+00  0.58803E+02    0.15000E+00  0.15000E+00 -0.30000E+00  0.00000E+00  0.00000E+00  0.00000E+00    0.18581E+02  0.17643E+02 -0.36224E+02 -0.27364E+01  0.15200E+01  0.12588E+02      982.00
  0.30512E+00  0.59203E+02    0.16250E+00  0.16250E+00 -0.32500E+00  0.00000E+00  0.00000E+00  0.00000E+00    0.18697E+02  0.17683E+02 -0.36380E+02 -0.27060E+01  0.14905E+01  0.12880E+02      982.00
  0.32816E+00  0.59581E+02    0.17500E+00  0.17500E+00 -0.35000E+00  0.00000E+00  0.00000E+00  0.00000E+00    0.18817E+02  0.17709E+02 -0.36526E+02 -0.26712E+01  0.14637E+01  0.13156E+02      982.00
  0.35115E+00  0.59942E+02    0.18750E+00  0.18750E+00 -0.37500E+00  0.00000E+00  0.00000E+00  0.00000E+00    0.18937E+02  0.17728E+02 -0.36665E+02 -0.26276E+01  0.14537E+01  0.13418E+02      982.00
  0.37409E+00  0.60287E+02    0.20000E+00  0.20000E+00 -0.40000E+00  0.00000E+00  0.00000E+00  0.00000E+00    0.19053E+02  0.17744E+02 -0.36798E+02 -0.25771E+01  0.14597E+01  0.13666E+02      982.00
  0.39698E+00  0.60616E+02    0.21250E+00  0.21250E+00 -0.42500E+00  0.00000E+00  0.00000E+00  0.00000E+00    0.19163E+02  0.17760E+02 -0.36922E+02 -0.25210E+01  0.14804E+01  0.13903E+02      982.00
  0.41982E+00  0.60929E+02    0.22500E+00  0.22500E+00 -0.45000E+00  0.00000E+00  0.00000E+00  0.00000E+00    0.19262E+02  0.17777E+02 -0.37039E+02 -0.24605E+01  0.15145E+01  0.14129E+02      982.00
  0.44262E+00  0.61227E+02    0.23750E+00  0.23750E+00 -0.47500E+00  0.00000E+00  0.00000E+00  0.00000E+00    0.19352E+02  0.17797E+02 -0.37148E+02 -0.23967E+01  0.15601E+01  0.14346E+02      982.00
  0.46537E+00  0.61511E+02    0.25000E+00  0.25000E+00 -0.50000E+00  0.00000E+00  0.00000E+00  0.00000E+00    0.19428E+02  0.17821E+02 -0.37249E+02 -0.23307E+01  0.16157E+01  0.14555E+02      982.00
  0.48808E+00  0.61764E+02    0.26250E+00  0.26250E+00 -0.52500E+00  0.00000E+00  0.00000E+00  0.00000E+00    0.19493E+02  0.17844E+02 -0.37337E+02 -0.22623E+01  0.16760E+01  0.14746E+02      982.00
  0.51075E+00  0.62028E+02    0.27500E+00  0.27500E+00 -0.55000E+00  0.00000E+00  0.00000E+00  0.00000E+00    0.19545E+02  0.17881E+02 -0.37426E+02 -0.21937E+01  0.17479E+01  0.14946E+02      982.00
  0.53337E+00  0.62273E+02    0.28750E+00  0.28750E+00 -0.57500E+00  0.00000E+00  0.00000E+00  0.00000E+00    0.19579E+02  0.17925E+02 -0.37505E+02 -0.21277E+01  0.18221E+01  0.15138E+02      982.00
  0.55596E+00  0.62507E+02    0.30000E+00  0.30000E+00 -0.60000E+00  0.00000E+00  0.00000E+00  0.00000E+00    0.19597E+02  0.17979E+02 -0.37576E+02 -0.20650E+01  0.18973E+01  0.15327E+02      982.00
  0.57850E+00  0.62722E+02    0.31250E+00  0.31250E+00 -0.62500E+00  0.00000E+00  0.00000E+00  0.00000E+00    0.19597E+02  0.18040E+02 -0.37637E+02 -0.20084E+01  0.19692E+01  0.15506E+02      982.00
  0.60100E+00  0.62935E+02    0.32500E+00  0.32500E+00 -0.65000E+00  0.00000E+00  0.00000E+00  0.00000E+00    0.19582E+02  0.18113E+02 -0.37695E+02 -0.19580E+01  0.20385E+01  0.15687E+02      982.00
  0.62346E+00  0.63138E+02    0.33750E+00  0.33750E+00 -0.67500E+00  0.00000E+00  0.00000E+00  0.00000E+00    0.19550E+02  0.18196E+02 -0.37746E+02 -0.19167E+01  0.21005E+01  0.15864E+02      982.00
  0.64588E+00  0.63322E+02    0.35000E+00  0.35000E+00 -0.70000E+00  0.00000E+00  0.00000E+00  0.00000E+00    0.19492E+02  0.18297E+02 -0.37789E+02 -0.18830E+01  0.21535E+01  0.16031E+02      982.00
  0.66826E+00  0.63506E+02    0.36250E+00  0.36250E+00 -0.72500E+00  0.00000E+00  0.00000E+00  0.00000E+00    0.19424E+02  0.18405E+02 -0.37829E+02 -0.18667E+01  0.21919E+01  0.16202E+02      982.00
  0.69060E+00  0.63680E+02    0.37500E+00  0.37500E+00 -0.75000E+00  0.00000E+00  0.00000E+00  0.00000E+00    0.19340E+02  0.18524E+02 -0.37864E+02 -0.18645E+01  0.22153E+01  0.16368E+02      982.00
  0.71290E+00  0.63854E+02    0.38750E+00  0.38750E+00 -0.77500E+00  0.00000E+00  0.00000E+00  0.00000E+00    0.19258E+02  0.18639E+02 -0.37898E+02 -0.18732E+01  0.22276E+01  0.16533E+02      982.00
  0.73515E+00  0.64011E+02    0.40000E+00  0.40000E+00 -0.80000E+00  0.00000E+00  0.00000E+00  0.00000E+00    0.19158E+02  0.18766E+02 -0.37924E+02 -0.18916E+01  0.22286E+01  0.16689E+02      982.00
  0.75737E+00  0.64159E+02    0.41250E+00  0.41250E+00 -0.82500E+00  0.00000E+00  0.00000E+00  0.00000E+00    0.19045E+02  0.18904E+02 -0.37949E+02 -0.19205E+01  0.22137E+01  0.16835E+02      982.00
  0.77955E+00  0.64316E+02    0.42500E+00  0.42500E+00 -0.85000E+00  0.00000E+00  0.00000E+00  0.00000E+00    0.18936E+02  0.19044E+02 -0.37980E+02 -0.19442E+01  0.21999E+01  0.16982E+02      982.00
  0.80170E+00  0.64442E+02    0.43750E+00  0.43750E+00 -0.87500E+00  0.00000E+00  0.00000E+00  0.00000E+00    0.18817E+02  0.19183E+02 -0.38000E+02 -0.19791E+01  0.21723E+01  0.17105E+02      982.00
  0.82381E+00  0.64561E+02    0.45000E+00  0.45000E+00 -0.90000E+00  0.00000E+00  0.00000E+00  0.00000E+00    0.18700E+02  0.19319E+02 -0.38020E+02 -0.20147E+01  0.21407E+01  0.17219E+02      982.00
  0.84589E+00  0.64672E+02    0.46250E+00  0.46250E+00 -0.92500E+00  0.00000E+00  0.00000E+00  0.00000E+00    0.18588E+02  0.19451E+02 -0.38039E+02 -0.20482E+01  0.21081E+01  0.17323E+02      982.00
  0.86795E+00  0.64776E+02    0.47500E+00  0.47500E+00 -0.95000E+00  0.00000E+00  0.00000E+00  0.00000E+00    0.18483E+02  0.19576E+02 -0.38059E+02 -0.20780E+01  0.20763E+01  0.17418E+02      982.00
  0.88998E+00  0.64834E+02    0.48750E+00  0.48750E+00 -0.97500E+00  0.00000E+00  0.00000E+00  0.00000E+00    0.18375E+02  0.19682E+02 -0.38057E+02 -0.20984E+01  0.20418E+01  0.17489E+02      982.00
  0.91200E+00  0.64890E+02    0.50000E+00  0.50000E+00 -0.10000E+01  0.00000E+00  0.00000E+00  0.00000E+00    0.18278E+02  0.19782E+02 -0.38060E+02 -0.21127E+01  0.20114E+01  0.17552E+02      982.00
