          Evm          Svm            E11          E22          E33          E23          E13          E12         SDEV11       SDEV22       SDEV33       SDEV23       SDEV13       SDEV12      TEMP
  0.00000E+00  0.56662E+02    0.00000E+00  0.00000E+00  0.00000E+00  0.00000E+00  0.00000E+00  0.00000E+00    0.21711E+02  0.14204E+02 -0.35916E+02 -0.11915E+01  0.34617E+01  0.86740E+01      982.00
  0.23770E-01  0.56546E+02    0.12500E-01  0.12500E-01 -0.25000E-01  0.00000E+00  0.00000E+00  0.00000E+00    0.21281E+02  0.14570E+02 -0.35851E+02 -0.12415E+01  0.33151E+01  0.88364E+01      982.00
  0.47545E-01  0.56575E+02    0.25000E-01  0.25000E-01 -0.50000E-01  0.00000E+00  0.00000E+00  0.00000E+00    0.20835E+02  0.15024E+02 -0.35859E+02 -0.13550E+01  0.31638E+01  0.90693E+01      982.00
  0.71313E-01  0.56728E+02    0.37500E-01  0.37500E-01 -0.75000E-01  0.00000E+00  0.00000E+00  0.00000E+00    0.20366E+02  0.15558E+02 -0.35924E+02 -0.15156E+01  0.30025E+01  0.93651E+01      982.00
  0.95061E-01  0.56964E+02    0.50000E-01  0.50000E-01 -0.10000E+00  0.00000E+00  0.00000E+00  0.00000E+00    0.19905E+02  0.16115E+02 -0.36020E+02 -0.17019E+01  0.28524E+01  0.96911E+01      982.00
  0.11877E+00  0.57253E+02    0.62500E-01  0.62500E-01 -0.12500E+00  0.00000E+00  0.00000E+00  0.00000E+00    0.19496E+02  0.16635E+02 -0.36131E+02 -0.18894E+01  0.27304E+01  0.10023E+02      982.00
  0.14244E+00  0.57585E+02    0.75000E-01  0.75000E-01 -0.15000E+00  0.00000E+00  0.00000E+00  0.00000E+00    0.19160E+02  0.17094E+02 -0.36254E+02 -0.20651E+01  0.26368E+01  0.10357E+02      982.00
  0.16605E+00  0.57957E+02    0.87500E-01  0.87500E-01 -0.17500E+00  0.00000E+00  0.00000E+00  0.00000E+00    0.18914E+02  0.17478E+02 -0.36392E+02 -0.22193E+01  0.25703E+01  0.10693E+02      982.00
  0.18959E+00  0.58362E+02    0.10000E+00  0.10000E+00 -0.20000E+00  0.00000E+00  0.00000E+00  0.00000E+00    0.18745E+02  0.17798E+02 -0.36543E+02 -0.23523E+01  0.25233E+01  0.11033E+02      982.00
  0.21307E+00  0.58788E+02    0.11250E+00  0.11250E+00 -0.22500E+00  0.00000E+00  0.00000E+00  0.00000E+00    0.18646E+02  0.18057E+02 -0.36703E+02 -0.24619E+01  0.24946E+01  0.11371E+02      982.00
  0.23649E+00  0.59223E+02    0.12500E+00  0.12500E+00 -0.25000E+00  0.00000E+00  0.00000E+00  0.00000E+00    0.18599E+02  0.18270E+02 -0.36868E+02 -0.25516E+01  0.24778E+01  0.11704E+02      982.00
  0.25983E+00  0.59655E+02    0.13750E+00  0.13750E+00 -0.27500E+00  0.00000E+00  0.00000E+00  0.00000E+00    0.18600E+02  0.18433E+02 -0.37034E+02 -0.26198E+01  0.24773E+01  0.12026E+02      982.00
  0.28311E+00  0.60079E+02    0.15000E+00  0.15000E+00 -0.30000E+00  0.00000E+00  0.00000E+00  0.00000E+00    0.18635E+02  0.18560E+02 -0.37196E+02 -0.26706E+01  0.24896E+01  0.12336E+02      982.00
  0.30633E+00  0.60490E+02    0.16250E+00  0.16250E+00 -0.32500E+00  0.00000E+00  0.00000E+00  0.00000E+00    0.18700E+02  0.18652E+02 -0.37351E+02 -0.26974E+01  0.25227E+01  0.12637E+02      982.00
  0.32948E+00  0.60897E+02    0.17500E+00  0.17500E+00 -0.35000E+00  0.00000E+00  0.00000E+00  0.00000E+00    0.18771E+02  0.18729E+02 -0.37500E+02 -0.27247E+01  0.25565E+01  0.12942E+02      982.00
  0.35258E+00  0.61273E+02    0.18750E+00  0.18750E+00 -0.37500E+00  0.00000E+00  0.00000E+00  0.00000E+00    0.18858E+02  0.18782E+02 -0.37640E+02 -0.27218E+01  0.26128E+01  0.13216E+02      982.00
  0.37561E+00  0.61627E+02    0.20000E+00  0.20000E+00 -0.40000E+00  0.00000E+00  0.00000E+00  0.00000E+00    0.18946E+02  0.18821E+02 -0.37767E+02 -0.27117E+01  0.26749E+01  0.13479E+02      982.00
  0.39859E+00  0.61947E+02    0.21250E+00  0.21250E+00 -0.42500E+00  0.00000E+00  0.00000E+00  0.00000E+00    0.19016E+02  0.18868E+02 -0.37884E+02 -0.26879E+01  0.27461E+01  0.13709E+02      982.00
  0.42153E+00  0.62270E+02    0.22500E+00  0.22500E+00 -0.45000E+00  0.00000E+00  0.00000E+00  0.00000E+00    0.19081E+02  0.18915E+02 -0.37996E+02 -0.26687E+01  0.28163E+01  0.13952E+02      982.00
  0.44441E+00  0.62576E+02    0.23750E+00  0.23750E+00 -0.47500E+00  0.00000E+00  0.00000E+00  0.00000E+00    0.19133E+02  0.18967E+02 -0.38099E+02 -0.26478E+01  0.28869E+01  0.14185E+02      982.00
  0.46724E+00  0.62865E+02    0.25000E+00  0.25000E+00 -0.50000E+00  0.00000E+00  0.00000E+00  0.00000E+00    0.19168E+02  0.19025E+02 -0.38194E+02 -0.26277E+01  0.29550E+01  0.14409E+02      982.00
  0.49002E+00  0.63140E+02    0.26250E+00  0.26250E+00 -0.52500E+00  0.00000E+00  0.00000E+00  0.00000E+00    0.19185E+02  0.19095E+02 -0.38279E+02 -0.26081E+01  0.30220E+01  0.14629E+02      982.00
  0.51276E+00  0.63435E+02    0.27500E+00  0.27500E+00 -0.55000E+00  0.00000E+00  0.00000E+00  0.00000E+00    0.19178E+02  0.19191E+02 -0.38370E+02 -0.25935E+01  0.30856E+01  0.14862E+02      982.00
  0.53544E+00  0.63637E+02    0.28750E+00  0.28750E+00 -0.57500E+00  0.00000E+00  0.00000E+00  0.00000E+00    0.19142E+02  0.19288E+02 -0.38430E+02 -0.25981E+01  0.31133E+01  0.15027E+02      982.00
  0.55809E+00  0.63862E+02    0.30000E+00  0.30000E+00 -0.60000E+00  0.00000E+00  0.00000E+00  0.00000E+00    0.19107E+02  0.19388E+02 -0.38495E+02 -0.26066E+01  0.31387E+01  0.15211E+02      982.00
  0.58069E+00  0.64110E+02    0.31250E+00  0.31250E+00 -0.62500E+00  0.00000E+00  0.00000E+00  0.00000E+00    0.19058E+02  0.19511E+02 -0.38569E+02 -0.26192E+01  0.31590E+01  0.15411E+02      982.00
  0.60325E+00  0.64313E+02    0.32500E+00  0.32500E+00 -0.65000E+00  0.00000E+00  0.00000E+00  0.00000E+00    0.18990E+02  0.19636E+02 -0.38627E+02 -0.26345E+01  0.31612E+01  0.15578E+02      982.00
  0.62578E+00  0.64508E+02    0.33750E+00  0.33750E+00 -0.67500E+00  0.00000E+00  0.00000E+00  0.00000E+00    0.18900E+02  0.19782E+02 -0.38682E+02 -0.26639E+01  0.31478E+01  0.15738E+02      982.00
  0.64826E+00  0.64687E+02    0.35000E+00  0.35000E+00 -0.70000E+00  0.00000E+00  0.00000E+00  0.00000E+00    0.18804E+02  0.19929E+02 -0.38733E+02 -0.26959E+01  0.31259E+01  0.15884E+02      982.00
  0.67072E+00  0.64874E+02    0.36250E+00  0.36250E+00 -0.72500E+00  0.00000E+00  0.00000E+00  0.00000E+00    0.18699E+02  0.20088E+02 -0.38787E+02 -0.27373E+01  0.30945E+01  0.16031E+02      982.00
  0.69314E+00  0.65055E+02    0.37500E+00  0.37500E+00 -0.75000E+00  0.00000E+00  0.00000E+00  0.00000E+00    0.18597E+02  0.20243E+02 -0.38840E+02 -0.27804E+01  0.30649E+01  0.16170E+02      982.00
  0.71553E+00  0.65241E+02    0.38750E+00  0.38750E+00 -0.77500E+00  0.00000E+00  0.00000E+00  0.00000E+00    0.18496E+02  0.20400E+02 -0.38896E+02 -0.28328E+01  0.30345E+01  0.16310E+02      982.00
  0.73788E+00  0.65427E+02    0.40000E+00  0.40000E+00 -0.80000E+00  0.00000E+00  0.00000E+00  0.00000E+00    0.18401E+02  0.20549E+02 -0.38950E+02 -0.28893E+01  0.30100E+01  0.16447E+02      982.00
  0.76021E+00  0.65610E+02    0.41250E+00  0.41250E+00 -0.82500E+00  0.00000E+00  0.00000E+00  0.00000E+00    0.18313E+02  0.20691E+02 -0.39004E+02 -0.29456E+01  0.29858E+01  0.16581E+02      982.00
  0.78250E+00  0.65780E+02    0.42500E+00  0.42500E+00 -0.85000E+00  0.00000E+00  0.00000E+00  0.00000E+00    0.18239E+02  0.20813E+02 -0.39053E+02 -0.29830E+01  0.29636E+01  0.16707E+02      982.00
  0.80476E+00  0.65938E+02    0.43750E+00  0.43750E+00 -0.87500E+00  0.00000E+00  0.00000E+00  0.00000E+00    0.18174E+02  0.20926E+02 -0.39100E+02 -0.29990E+01  0.29295E+01  0.16829E+02      982.00
  0.82700E+00  0.66083E+02    0.45000E+00  0.45000E+00 -0.90000E+00  0.00000E+00  0.00000E+00  0.00000E+00    0.18115E+02  0.21028E+02 -0.39143E+02 -0.29886E+01  0.28834E+01  0.16945E+02      982.00
  0.84921E+00  0.66211E+02    0.46250E+00  0.46250E+00 -0.92500E+00  0.00000E+00  0.00000E+00  0.00000E+00    0.18060E+02  0.21123E+02 -0.39183E+02 -0.29532E+01  0.28228E+01  0.17053E+02      982.00
  0.87140E+00  0.66329E+02    0.47500E+00  0.47500E+00 -0.95000E+00  0.00000E+00  0.00000E+00  0.00000E+00    0.18011E+02  0.21209E+02 -0.39220E+02 -0.28954E+01  0.27550E+01  0.17156E+02      982.00
  0.89358E+00  0.66435E+02    0.48750E+00  0.48750E+00 -0.97500E+00  0.00000E+00  0.00000E+00  0.00000E+00    0.17964E+02  0.21288E+02 -0.39253E+02 -0.28242E+01  0.26794E+01  0.17254E+02      982.00
  0.91573E+00  0.66537E+02    0.50000E+00  0.50000E+00 -0.10000E+01  0.00000E+00  0.00000E+00  0.00000E+00    0.17923E+02  0.21360E+02 -0.39284E+02 -0.27508E+01  0.26047E+01  0.17350E+02      982.00
