          Evm          Svm            E11          E22          E33          E23          E13          E12         SDEV11       SDEV22       SDEV33       SDEV23       SDEV13       SDEV12      TEMP
  0.00000E+00  0.63501E+02    0.00000E+00  0.00000E+00  0.00000E+00  0.00000E+00  0.00000E+00  0.00000E+00    0.21065E+02  0.20083E+02 -0.41148E+02  0.15655E+01 -0.10692E+01  0.83924E+01      982.00
  0.24300E-01  0.63476E+02    0.12500E-01  0.12500E-01 -0.25000E-01  0.00000E+00  0.00000E+00  0.00000E+00    0.21262E+02  0.19836E+02 -0.41099E+02  0.15634E+01 -0.11720E+01  0.84805E+01      982.00
  0.48580E-01  0.63483E+02    0.25000E-01  0.25000E-01 -0.50000E-01  0.00000E+00  0.00000E+00  0.00000E+00    0.21385E+02  0.19681E+02 -0.41066E+02  0.15642E+01 -0.12751E+01  0.85890E+01      982.00
  0.72837E-01  0.63529E+02    0.37500E-01  0.37500E-01 -0.75000E-01  0.00000E+00  0.00000E+00  0.00000E+00    0.21490E+02  0.19564E+02 -0.41054E+02  0.15747E+01 -0.13677E+01  0.87155E+01      982.00
  0.97071E-01  0.63614E+02    0.50000E-01  0.50000E-01 -0.10000E+00  0.00000E+00  0.00000E+00  0.00000E+00    0.21580E+02  0.19484E+02 -0.41064E+02  0.15925E+01 -0.14521E+01  0.88589E+01      982.00
  0.12128E+00  0.63735E+02    0.62500E-01  0.62500E-01 -0.12500E+00  0.00000E+00  0.00000E+00  0.00000E+00    0.21672E+02  0.19422E+02 -0.41095E+02  0.16168E+01 -0.15281E+01  0.90149E+01      982.00
  0.14546E+00  0.63890E+02    0.75000E-01  0.75000E-01 -0.15000E+00  0.00000E+00  0.00000E+00  0.00000E+00    0.21764E+02  0.19381E+02 -0.41145E+02  0.16449E+01 -0.15976E+01  0.91831E+01      982.00
  0.16961E+00  0.64077E+02    0.87500E-01  0.87500E-01 -0.17500E+00  0.00000E+00  0.00000E+00  0.00000E+00    0.21851E+02  0.19363E+02 -0.41214E+02  0.16796E+01 -0.16676E+01  0.93567E+01      982.00
  0.19373E+00  0.64289E+02    0.10000E+00  0.10000E+00 -0.20000E+00  0.00000E+00  0.00000E+00  0.00000E+00    0.21943E+02  0.19354E+02 -0.41297E+02  0.17146E+01 -0.17308E+01  0.95394E+01      982.00
  0.21781E+00  0.64522E+02    0.11250E+00  0.11250E+00 -0.22500E+00  0.00000E+00  0.00000E+00  0.00000E+00    0.22031E+02  0.19365E+02 -0.41396E+02  0.17569E+01 -0.17982E+01  0.97152E+01      982.00
  0.24187E+00  0.64777E+02    0.12500E+00  0.12500E+00 -0.25000E+00  0.00000E+00  0.00000E+00  0.00000E+00    0.22124E+02  0.19382E+02 -0.41506E+02  0.17986E+01 -0.18611E+01  0.99014E+01      982.00
  0.26590E+00  0.65032E+02    0.13750E+00  0.13750E+00 -0.27500E+00  0.00000E+00  0.00000E+00  0.00000E+00    0.22209E+02  0.19413E+02 -0.41622E+02  0.18463E+01 -0.19278E+01  0.10067E+02      982.00
  0.28990E+00  0.65314E+02    0.15000E+00  0.15000E+00 -0.30000E+00  0.00000E+00  0.00000E+00  0.00000E+00    0.22298E+02  0.19454E+02 -0.41752E+02  0.18963E+01 -0.19953E+01  0.10244E+02      982.00
  0.31387E+00  0.65569E+02    0.16250E+00  0.16250E+00 -0.32500E+00  0.00000E+00  0.00000E+00  0.00000E+00    0.22374E+02  0.19500E+02 -0.41873E+02  0.19471E+01 -0.20607E+01  0.10391E+02      982.00
  0.33782E+00  0.65817E+02    0.17500E+00  0.17500E+00 -0.35000E+00  0.00000E+00  0.00000E+00  0.00000E+00    0.22443E+02  0.19550E+02 -0.41993E+02  0.19986E+01 -0.21250E+01  0.10527E+02      982.00
  0.36175E+00  0.66090E+02    0.18750E+00  0.18750E+00 -0.37500E+00  0.00000E+00  0.00000E+00  0.00000E+00    0.22514E+02  0.19610E+02 -0.42124E+02  0.20561E+01 -0.21954E+01  0.10675E+02      982.00
  0.38565E+00  0.66314E+02    0.20000E+00  0.20000E+00 -0.40000E+00  0.00000E+00  0.00000E+00  0.00000E+00    0.22568E+02  0.19666E+02 -0.42234E+02  0.21076E+01 -0.22562E+01  0.10790E+02      982.00
  0.40953E+00  0.66524E+02    0.21250E+00  0.21250E+00 -0.42500E+00  0.00000E+00  0.00000E+00  0.00000E+00    0.22615E+02  0.19722E+02 -0.42337E+02  0.21591E+01 -0.23153E+01  0.10895E+02      982.00
  0.43340E+00  0.66721E+02    0.22500E+00  0.22500E+00 -0.45000E+00  0.00000E+00  0.00000E+00  0.00000E+00    0.22655E+02  0.19778E+02 -0.42434E+02  0.22101E+01 -0.23722E+01  0.10992E+02      982.00
  0.45725E+00  0.66886E+02    0.23750E+00  0.23750E+00 -0.47500E+00  0.00000E+00  0.00000E+00  0.00000E+00    0.22686E+02  0.19829E+02 -0.42514E+02  0.22533E+01 -0.24188E+01  0.11075E+02      982.00
  0.48108E+00  0.67057E+02    0.25000E+00  0.25000E+00 -0.50000E+00  0.00000E+00  0.00000E+00  0.00000E+00    0.22715E+02  0.19883E+02 -0.42598E+02  0.23033E+01 -0.24717E+01  0.11159E+02      982.00
  0.50491E+00  0.67214E+02    0.26250E+00  0.26250E+00 -0.52500E+00  0.00000E+00  0.00000E+00  0.00000E+00    0.22738E+02  0.19935E+02 -0.42674E+02  0.23524E+01 -0.25224E+01  0.11236E+02      982.00
  0.52872E+00  0.67358E+02    0.27500E+00  0.27500E+00 -0.55000E+00  0.00000E+00  0.00000E+00  0.00000E+00    0.22757E+02  0.19986E+02 -0.42742E+02  0.24007E+01 -0.25711E+01  0.11308E+02      982.00
  0.55251E+00  0.67490E+02    0.28750E+00  0.28750E+00 -0.57500E+00  0.00000E+00  0.00000E+00  0.00000E+00    0.22771E+02  0.20033E+02 -0.42804E+02  0.24482E+01 -0.26180E+01  0.11375E+02      982.00
  0.57630E+00  0.67610E+02    0.30000E+00  0.30000E+00 -0.60000E+00  0.00000E+00  0.00000E+00  0.00000E+00    0.22781E+02  0.20079E+02 -0.42860E+02  0.24950E+01 -0.26633E+01  0.11437E+02      982.00
  0.60007E+00  0.67719E+02    0.31250E+00  0.31250E+00 -0.62500E+00  0.00000E+00  0.00000E+00  0.00000E+00    0.22788E+02  0.20122E+02 -0.42910E+02  0.25411E+01 -0.27070E+01  0.11496E+02      982.00
  0.62383E+00  0.67819E+02    0.32500E+00  0.32500E+00 -0.65000E+00  0.00000E+00  0.00000E+00  0.00000E+00    0.22792E+02  0.20162E+02 -0.42953E+02  0.25864E+01 -0.27492E+01  0.11551E+02      982.00
  0.64758E+00  0.67908E+02    0.33750E+00  0.33750E+00 -0.67500E+00  0.00000E+00  0.00000E+00  0.00000E+00    0.22792E+02  0.20198E+02 -0.42991E+02  0.26313E+01 -0.27905E+01  0.11601E+02      982.00
  0.67132E+00  0.67990E+02    0.35000E+00  0.35000E+00 -0.70000E+00  0.00000E+00  0.00000E+00  0.00000E+00    0.22791E+02  0.20234E+02 -0.43025E+02  0.26752E+01 -0.28303E+01  0.11650E+02      982.00
  0.69505E+00  0.68064E+02    0.36250E+00  0.36250E+00 -0.72500E+00  0.00000E+00  0.00000E+00  0.00000E+00    0.22788E+02  0.20266E+02 -0.43054E+02  0.27184E+01 -0.28689E+01  0.11696E+02      982.00
  0.71877E+00  0.68131E+02    0.37500E+00  0.37500E+00 -0.75000E+00  0.00000E+00  0.00000E+00  0.00000E+00    0.22782E+02  0.20297E+02 -0.43079E+02  0.27608E+01 -0.29065E+01  0.11740E+02      982.00
  0.74248E+00  0.68192E+02    0.38750E+00  0.38750E+00 -0.77500E+00  0.00000E+00  0.00000E+00  0.00000E+00    0.22776E+02  0.20325E+02 -0.43100E+02  0.28026E+01 -0.29430E+01  0.11782E+02      982.00
  0.76618E+00  0.68247E+02    0.40000E+00  0.40000E+00 -0.80000E+00  0.00000E+00  0.00000E+00  0.00000E+00    0.22768E+02  0.20351E+02 -0.43118E+02  0.28436E+01 -0.29787E+01  0.11821E+02      982.00
  0.78988E+00  0.68297E+02    0.41250E+00  0.41250E+00 -0.82500E+00  0.00000E+00  0.00000E+00  0.00000E+00    0.22758E+02  0.20375E+02 -0.43133E+02  0.28839E+01 -0.30134E+01  0.11860E+02      982.00
  0.81356E+00  0.68342E+02    0.42500E+00  0.42500E+00 -0.85000E+00  0.00000E+00  0.00000E+00  0.00000E+00    0.22748E+02  0.20397E+02 -0.43145E+02  0.29234E+01 -0.30473E+01  0.11896E+02      982.00
  0.83723E+00  0.68383E+02    0.43750E+00  0.43750E+00 -0.87500E+00  0.00000E+00  0.00000E+00  0.00000E+00    0.22738E+02  0.20417E+02 -0.43155E+02  0.29622E+01 -0.30804E+01  0.11931E+02      982.00
  0.86090E+00  0.68420E+02    0.45000E+00  0.45000E+00 -0.90000E+00  0.00000E+00  0.00000E+00  0.00000E+00    0.22726E+02  0.20436E+02 -0.43162E+02  0.30003E+01 -0.31127E+01  0.11965E+02      982.00
  0.88456E+00  0.68453E+02    0.46250E+00  0.46250E+00 -0.92500E+00  0.00000E+00  0.00000E+00  0.00000E+00    0.22715E+02  0.20453E+02 -0.43168E+02  0.30376E+01 -0.31442E+01  0.11998E+02      982.00
  0.90820E+00  0.68483E+02    0.47500E+00  0.47500E+00 -0.95000E+00  0.00000E+00  0.00000E+00  0.00000E+00    0.22703E+02  0.20469E+02 -0.43171E+02  0.30742E+01 -0.31750E+01  0.12030E+02      982.00
  0.93184E+00  0.68470E+02    0.48750E+00  0.48750E+00 -0.97500E+00  0.00000E+00  0.00000E+00  0.00000E+00    0.22676E+02  0.20472E+02 -0.43148E+02  0.30972E+01 -0.31912E+01  0.12059E+02      982.00
  0.95548E+00  0.68455E+02    0.50000E+00  0.50000E+00 -0.10000E+01  0.00000E+00  0.00000E+00  0.00000E+00    0.22651E+02  0.20474E+02 -0.43125E+02  0.31237E+01 -0.32116E+01  0.12080E+02      982.00
