          Evm          Svm            E11          E22          E33          E23          E13          E12         SDEV11       SDEV22       SDEV33       SDEV23       SDEV13       SDEV12      TEMP
  0.00000E+00  0.62592E+02    0.00000E+00  0.00000E+00  0.00000E+00  0.00000E+00  0.00000E+00  0.00000E+00    0.17428E+02  0.22243E+02 -0.39672E+02  0.34396E+01 -0.50288E+01  0.90906E+01      982.00
  0.23768E-01  0.62573E+02    0.12500E-01  0.12500E-01 -0.25000E-01  0.00000E+00  0.00000E+00  0.00000E+00    0.17064E+02  0.22616E+02 -0.39680E+02  0.34977E+01 -0.47133E+01  0.90626E+01      982.00
  0.47548E-01  0.62591E+02    0.25000E-01  0.25000E-01 -0.50000E-01  0.00000E+00  0.00000E+00  0.00000E+00    0.16786E+02  0.22913E+02 -0.39699E+02  0.35837E+01 -0.44214E+01  0.90589E+01      982.00
  0.71333E-01  0.62653E+02    0.37500E-01  0.37500E-01 -0.75000E-01  0.00000E+00  0.00000E+00  0.00000E+00    0.16555E+02  0.23181E+02 -0.39736E+02  0.36669E+01 -0.41676E+01  0.90811E+01      982.00
  0.95116E-01  0.62746E+02    0.50000E-01  0.50000E-01 -0.10000E+00  0.00000E+00  0.00000E+00  0.00000E+00    0.16352E+02  0.23431E+02 -0.39783E+02  0.37352E+01 -0.39528E+01  0.91233E+01      982.00
  0.11889E+00  0.62873E+02    0.62500E-01  0.62500E-01 -0.12500E+00  0.00000E+00  0.00000E+00  0.00000E+00    0.16188E+02  0.23656E+02 -0.39844E+02  0.37913E+01 -0.37744E+01  0.91898E+01      982.00
  0.14266E+00  0.63042E+02    0.75000E-01  0.75000E-01 -0.15000E+00  0.00000E+00  0.00000E+00  0.00000E+00    0.16051E+02  0.23875E+02 -0.39925E+02  0.38361E+01 -0.36298E+01  0.92762E+01      982.00
  0.16641E+00  0.63241E+02    0.87500E-01  0.87500E-01 -0.17500E+00  0.00000E+00  0.00000E+00  0.00000E+00    0.15943E+02  0.24078E+02 -0.40022E+02  0.38710E+01 -0.35134E+01  0.93790E+01      982.00
  0.19014E+00  0.63457E+02    0.10000E+00  0.10000E+00 -0.20000E+00  0.00000E+00  0.00000E+00  0.00000E+00    0.15868E+02  0.24257E+02 -0.40125E+02  0.39001E+01 -0.34210E+01  0.94997E+01      982.00
  0.21385E+00  0.63688E+02    0.11250E+00  0.11250E+00 -0.22500E+00  0.00000E+00  0.00000E+00  0.00000E+00    0.15812E+02  0.24424E+02 -0.40236E+02  0.39214E+01 -0.33490E+01  0.96288E+01      982.00
  0.23754E+00  0.63943E+02    0.12500E+00  0.12500E+00 -0.25000E+00  0.00000E+00  0.00000E+00  0.00000E+00    0.15785E+02  0.24577E+02 -0.40362E+02  0.39385E+01 -0.32948E+01  0.97675E+01      982.00
  0.26121E+00  0.64197E+02    0.13750E+00  0.13750E+00 -0.27500E+00  0.00000E+00  0.00000E+00  0.00000E+00    0.15777E+02  0.24707E+02 -0.40484E+02  0.39520E+01 -0.32554E+01  0.99181E+01      982.00
  0.28486E+00  0.64482E+02    0.15000E+00  0.15000E+00 -0.30000E+00  0.00000E+00  0.00000E+00  0.00000E+00    0.15804E+02  0.24823E+02 -0.40626E+02  0.39640E+01 -0.32272E+01  0.10081E+02      982.00
  0.30849E+00  0.64751E+02    0.16250E+00  0.16250E+00 -0.32500E+00  0.00000E+00  0.00000E+00  0.00000E+00    0.15854E+02  0.24910E+02 -0.40764E+02  0.39782E+01 -0.32184E+01  0.10226E+02      982.00
  0.33210E+00  0.64989E+02    0.17500E+00  0.17500E+00 -0.35000E+00  0.00000E+00  0.00000E+00  0.00000E+00    0.15920E+02  0.24971E+02 -0.40890E+02  0.39920E+01 -0.32228E+01  0.10346E+02      982.00
  0.35569E+00  0.65247E+02    0.18750E+00  0.18750E+00 -0.37500E+00  0.00000E+00  0.00000E+00  0.00000E+00    0.15998E+02  0.25026E+02 -0.41024E+02  0.40015E+01 -0.32328E+01  0.10490E+02      982.00
  0.37927E+00  0.65513E+02    0.20000E+00  0.20000E+00 -0.40000E+00  0.00000E+00  0.00000E+00  0.00000E+00    0.16089E+02  0.25075E+02 -0.41163E+02  0.40122E+01 -0.32525E+01  0.10628E+02      982.00
  0.40283E+00  0.65743E+02    0.21250E+00  0.21250E+00 -0.42500E+00  0.00000E+00  0.00000E+00  0.00000E+00    0.16188E+02  0.25096E+02 -0.41284E+02  0.40118E+01 -0.32721E+01  0.10760E+02      982.00
  0.42638E+00  0.65969E+02    0.22500E+00  0.22500E+00 -0.45000E+00  0.00000E+00  0.00000E+00  0.00000E+00    0.16299E+02  0.25105E+02 -0.41404E+02  0.40097E+01 -0.32967E+01  0.10888E+02      982.00
  0.44991E+00  0.66166E+02    0.23750E+00  0.23750E+00 -0.47500E+00  0.00000E+00  0.00000E+00  0.00000E+00    0.16414E+02  0.25095E+02 -0.41509E+02  0.40050E+01 -0.33246E+01  0.11007E+02      982.00
  0.47344E+00  0.66357E+02    0.25000E+00  0.25000E+00 -0.50000E+00  0.00000E+00  0.00000E+00  0.00000E+00    0.16526E+02  0.25083E+02 -0.41609E+02  0.39987E+01 -0.33559E+01  0.11123E+02      982.00
  0.49695E+00  0.66550E+02    0.26250E+00  0.26250E+00 -0.52500E+00  0.00000E+00  0.00000E+00  0.00000E+00    0.16665E+02  0.25052E+02 -0.41717E+02  0.39886E+01 -0.33836E+01  0.11232E+02      982.00
  0.52046E+00  0.66715E+02    0.27500E+00  0.27500E+00 -0.55000E+00  0.00000E+00  0.00000E+00  0.00000E+00    0.16792E+02  0.25014E+02 -0.41806E+02  0.39763E+01 -0.34149E+01  0.11334E+02      982.00
  0.54396E+00  0.66867E+02    0.28750E+00  0.28750E+00 -0.57500E+00  0.00000E+00  0.00000E+00  0.00000E+00    0.16920E+02  0.24969E+02 -0.41889E+02  0.39633E+01 -0.34452E+01  0.11429E+02      982.00
  0.56745E+00  0.67005E+02    0.30000E+00  0.30000E+00 -0.60000E+00  0.00000E+00  0.00000E+00  0.00000E+00    0.17048E+02  0.24915E+02 -0.41964E+02  0.39499E+01 -0.34756E+01  0.11519E+02      982.00
  0.59094E+00  0.67135E+02    0.31250E+00  0.31250E+00 -0.62500E+00  0.00000E+00  0.00000E+00  0.00000E+00    0.17175E+02  0.24860E+02 -0.42035E+02  0.39350E+01 -0.35064E+01  0.11602E+02      982.00
  0.61442E+00  0.67247E+02    0.32500E+00  0.32500E+00 -0.65000E+00  0.00000E+00  0.00000E+00  0.00000E+00    0.17309E+02  0.24790E+02 -0.42099E+02  0.39167E+01 -0.35321E+01  0.11676E+02      982.00
  0.63789E+00  0.67353E+02    0.33750E+00  0.33750E+00 -0.67500E+00  0.00000E+00  0.00000E+00  0.00000E+00    0.17430E+02  0.24727E+02 -0.42157E+02  0.39015E+01 -0.35605E+01  0.11749E+02      982.00
  0.66136E+00  0.67456E+02    0.35000E+00  0.35000E+00 -0.70000E+00  0.00000E+00  0.00000E+00  0.00000E+00    0.17548E+02  0.24666E+02 -0.42214E+02  0.38865E+01 -0.35880E+01  0.11816E+02      982.00
  0.68483E+00  0.67555E+02    0.36250E+00  0.36250E+00 -0.72500E+00  0.00000E+00  0.00000E+00  0.00000E+00    0.17663E+02  0.24605E+02 -0.42269E+02  0.38720E+01 -0.36155E+01  0.11880E+02      982.00
  0.70830E+00  0.67624E+02    0.37500E+00  0.37500E+00 -0.75000E+00  0.00000E+00  0.00000E+00  0.00000E+00    0.17781E+02  0.24527E+02 -0.42307E+02  0.38538E+01 -0.36412E+01  0.11934E+02      982.00
  0.73176E+00  0.67703E+02    0.38750E+00  0.38750E+00 -0.77500E+00  0.00000E+00  0.00000E+00  0.00000E+00    0.17885E+02  0.24465E+02 -0.42351E+02  0.38400E+01 -0.36669E+01  0.11988E+02      982.00
  0.75521E+00  0.67784E+02    0.40000E+00  0.40000E+00 -0.80000E+00  0.00000E+00  0.00000E+00  0.00000E+00    0.17988E+02  0.24408E+02 -0.42395E+02  0.38269E+01 -0.36908E+01  0.12040E+02      982.00
  0.77867E+00  0.67849E+02    0.41250E+00  0.41250E+00 -0.82500E+00  0.00000E+00  0.00000E+00  0.00000E+00    0.18083E+02  0.24348E+02 -0.42431E+02  0.38135E+01 -0.37140E+01  0.12087E+02      982.00
  0.80212E+00  0.67899E+02    0.42500E+00  0.42500E+00 -0.85000E+00  0.00000E+00  0.00000E+00  0.00000E+00    0.18184E+02  0.24274E+02 -0.42458E+02  0.37970E+01 -0.37389E+01  0.12128E+02      982.00
  0.82557E+00  0.67965E+02    0.43750E+00  0.43750E+00 -0.87500E+00  0.00000E+00  0.00000E+00  0.00000E+00    0.18272E+02  0.24222E+02 -0.42494E+02  0.37855E+01 -0.37612E+01  0.12170E+02      982.00
  0.84901E+00  0.68017E+02    0.45000E+00  0.45000E+00 -0.90000E+00  0.00000E+00  0.00000E+00  0.00000E+00    0.18352E+02  0.24170E+02 -0.42522E+02  0.37733E+01 -0.37827E+01  0.12207E+02      982.00
  0.87246E+00  0.68072E+02    0.46250E+00  0.46250E+00 -0.92500E+00  0.00000E+00  0.00000E+00  0.00000E+00    0.18430E+02  0.24122E+02 -0.42552E+02  0.37630E+01 -0.38025E+01  0.12242E+02      982.00
  0.89590E+00  0.68116E+02    0.47500E+00  0.47500E+00 -0.95000E+00  0.00000E+00  0.00000E+00  0.00000E+00    0.18503E+02  0.24073E+02 -0.42576E+02  0.37538E+01 -0.38220E+01  0.12274E+02      982.00
  0.91934E+00  0.68160E+02    0.48750E+00  0.48750E+00 -0.97500E+00  0.00000E+00  0.00000E+00  0.00000E+00    0.18572E+02  0.24027E+02 -0.42599E+02  0.37456E+01 -0.38407E+01  0.12304E+02      982.00
  0.94278E+00  0.68165E+02    0.50000E+00  0.50000E+00 -0.10000E+01  0.00000E+00  0.00000E+00  0.00000E+00    0.18634E+02  0.23964E+02 -0.42597E+02  0.37195E+01 -0.38473E+01  0.12336E+02      982.00
