          Evm          Svm            E11          E22          E33          E23          E13          E12         SDEV11       SDEV22       SDEV33       SDEV23       SDEV13       SDEV12      TEMP
  0.00000E+00  0.68803E+02    0.00000E+00  0.00000E+00  0.00000E+00  0.00000E+00  0.00000E+00  0.00000E+00    0.21716E+02  0.23784E+02 -0.45500E+02 -0.21546E+01  0.12934E+01 -0.42336E+01      982.00
  0.24799E-01  0.68597E+02    0.12500E-01  0.12500E-01 -0.25000E-01  0.00000E+00  0.00000E+00  0.00000E+00    0.21657E+02  0.23717E+02 -0.45373E+02 -0.22141E+01  0.13270E+01 -0.40930E+01      982.00
  0.49603E-01  0.68423E+02    0.25000E-01  0.25000E-01 -0.50000E-01  0.00000E+00  0.00000E+00  0.00000E+00    0.21623E+02  0.23648E+02 -0.45271E+02 -0.22682E+01  0.13642E+01 -0.39280E+01      982.00
  0.74414E-01  0.68344E+02    0.37500E-01  0.37500E-01 -0.75000E-01  0.00000E+00  0.00000E+00  0.00000E+00    0.21628E+02  0.23609E+02 -0.45237E+02 -0.23263E+01  0.13996E+01 -0.37181E+01      982.00
  0.99236E-01  0.68326E+02    0.50000E-01  0.50000E-01 -0.10000E+00  0.00000E+00  0.00000E+00  0.00000E+00    0.21659E+02  0.23588E+02 -0.45247E+02 -0.23897E+01  0.14344E+01 -0.34635E+01      982.00
  0.12407E+00  0.68390E+02    0.62500E-01  0.62500E-01 -0.12500E+00  0.00000E+00  0.00000E+00  0.00000E+00    0.21721E+02  0.23591E+02 -0.45313E+02 -0.24572E+01  0.14671E+01 -0.31741E+01      982.00
  0.14891E+00  0.68541E+02    0.75000E-01  0.75000E-01 -0.15000E+00  0.00000E+00  0.00000E+00  0.00000E+00    0.21817E+02  0.23619E+02 -0.45436E+02 -0.25253E+01  0.15000E+01 -0.28655E+01      982.00
  0.17377E+00  0.68734E+02    0.87500E-01  0.87500E-01 -0.17500E+00  0.00000E+00  0.00000E+00  0.00000E+00    0.21926E+02  0.23659E+02 -0.45586E+02 -0.25966E+01  0.15294E+01 -0.25351E+01      982.00
  0.19864E+00  0.68979E+02    0.10000E+00  0.10000E+00 -0.20000E+00  0.00000E+00  0.00000E+00  0.00000E+00    0.22052E+02  0.23715E+02 -0.45767E+02 -0.26674E+01  0.15568E+01 -0.22016E+01      982.00
  0.22353E+00  0.69251E+02    0.11250E+00  0.11250E+00 -0.22500E+00  0.00000E+00  0.00000E+00  0.00000E+00    0.22187E+02  0.23776E+02 -0.45963E+02 -0.27384E+01  0.15818E+01 -0.18638E+01      982.00
  0.24841E+00  0.69530E+02    0.12500E+00  0.12500E+00 -0.25000E+00  0.00000E+00  0.00000E+00  0.00000E+00    0.22322E+02  0.23838E+02 -0.46160E+02 -0.28042E+01  0.16035E+01 -0.15445E+01      982.00
  0.27331E+00  0.69788E+02    0.13750E+00  0.13750E+00 -0.27500E+00  0.00000E+00  0.00000E+00  0.00000E+00    0.22447E+02  0.23894E+02 -0.46340E+02 -0.28662E+01  0.16188E+01 -0.12330E+01      982.00
  0.29821E+00  0.70051E+02    0.15000E+00  0.15000E+00 -0.30000E+00  0.00000E+00  0.00000E+00  0.00000E+00    0.22574E+02  0.23947E+02 -0.46521E+02 -0.29205E+01  0.16330E+01 -0.94497E+00      982.00
  0.32311E+00  0.70304E+02    0.16250E+00  0.16250E+00 -0.32500E+00  0.00000E+00  0.00000E+00  0.00000E+00    0.22698E+02  0.23995E+02 -0.46693E+02 -0.29675E+01  0.16422E+01 -0.67184E+00      982.00
  0.34802E+00  0.70532E+02    0.17500E+00  0.17500E+00 -0.35000E+00  0.00000E+00  0.00000E+00  0.00000E+00    0.22814E+02  0.24032E+02 -0.46847E+02 -0.30054E+01  0.16447E+01 -0.41141E+00      982.00
  0.37293E+00  0.70742E+02    0.18750E+00  0.18750E+00 -0.37500E+00  0.00000E+00  0.00000E+00  0.00000E+00    0.22926E+02  0.24062E+02 -0.46988E+02 -0.30341E+01  0.16395E+01 -0.15977E+00      982.00
  0.39784E+00  0.70919E+02    0.20000E+00  0.20000E+00 -0.40000E+00  0.00000E+00  0.00000E+00  0.00000E+00    0.23030E+02  0.24076E+02 -0.47106E+02 -0.30521E+01  0.16242E+01  0.86159E-01      982.00
  0.42274E+00  0.71075E+02    0.21250E+00  0.21250E+00 -0.42500E+00  0.00000E+00  0.00000E+00  0.00000E+00    0.23131E+02  0.24080E+02 -0.47211E+02 -0.30597E+01  0.15970E+01  0.33127E+00      982.00
  0.44765E+00  0.71189E+02    0.22500E+00  0.22500E+00 -0.45000E+00  0.00000E+00  0.00000E+00  0.00000E+00    0.23218E+02  0.24069E+02 -0.47287E+02 -0.30597E+01  0.15477E+01  0.58386E+00      982.00
  0.47256E+00  0.71314E+02    0.23750E+00  0.23750E+00 -0.47500E+00  0.00000E+00  0.00000E+00  0.00000E+00    0.23319E+02  0.24050E+02 -0.47369E+02 -0.30482E+01  0.15025E+01  0.81931E+00      982.00
  0.49747E+00  0.71398E+02    0.25000E+00  0.25000E+00 -0.50000E+00  0.00000E+00  0.00000E+00  0.00000E+00    0.23419E+02  0.24004E+02 -0.47423E+02 -0.30319E+01  0.14262E+01  0.10932E+01      982.00
  0.52238E+00  0.71470E+02    0.26250E+00  0.26250E+00 -0.52500E+00  0.00000E+00  0.00000E+00  0.00000E+00    0.23524E+02  0.23944E+02 -0.47468E+02 -0.30081E+01  0.13500E+01  0.13494E+01      982.00
  0.54729E+00  0.71507E+02    0.27500E+00  0.27500E+00 -0.55000E+00  0.00000E+00  0.00000E+00  0.00000E+00    0.23627E+02  0.23861E+02 -0.47488E+02 -0.29794E+01  0.12540E+01  0.16199E+01      982.00
  0.57219E+00  0.71534E+02    0.28750E+00  0.28750E+00 -0.57500E+00  0.00000E+00  0.00000E+00  0.00000E+00    0.23739E+02  0.23761E+02 -0.47500E+02 -0.29406E+01  0.11567E+01  0.18885E+01      982.00
  0.59709E+00  0.71543E+02    0.30000E+00  0.30000E+00 -0.60000E+00  0.00000E+00  0.00000E+00  0.00000E+00    0.23857E+02  0.23641E+02 -0.47498E+02 -0.28861E+01  0.10700E+01  0.21487E+01      982.00
  0.62199E+00  0.71544E+02    0.31250E+00  0.31250E+00 -0.62500E+00  0.00000E+00  0.00000E+00  0.00000E+00    0.23981E+02  0.23509E+02 -0.47490E+02 -0.28128E+01  0.10044E+01  0.23937E+01      982.00
  0.64688E+00  0.71534E+02    0.32500E+00  0.32500E+00 -0.65000E+00  0.00000E+00  0.00000E+00  0.00000E+00    0.24115E+02  0.23358E+02 -0.47473E+02 -0.27159E+01  0.95828E+00  0.26400E+01      982.00
  0.67177E+00  0.71512E+02    0.33750E+00  0.33750E+00 -0.67500E+00  0.00000E+00  0.00000E+00  0.00000E+00    0.24255E+02  0.23193E+02 -0.47449E+02 -0.25989E+01  0.94936E+00  0.28631E+01      982.00
  0.69665E+00  0.71491E+02    0.35000E+00  0.35000E+00 -0.70000E+00  0.00000E+00  0.00000E+00  0.00000E+00    0.24396E+02  0.23027E+02 -0.47423E+02 -0.24887E+01  0.98549E+00  0.30487E+01      982.00
  0.72152E+00  0.71464E+02    0.36250E+00  0.36250E+00 -0.72500E+00  0.00000E+00  0.00000E+00  0.00000E+00    0.24531E+02  0.22860E+02 -0.47392E+02 -0.24001E+01  0.10438E+01  0.32158E+01      982.00
  0.74639E+00  0.71444E+02    0.37500E+00  0.37500E+00 -0.75000E+00  0.00000E+00  0.00000E+00  0.00000E+00    0.24675E+02  0.22687E+02 -0.47362E+02 -0.23140E+01  0.11125E+01  0.33874E+01      982.00
  0.77125E+00  0.71420E+02    0.38750E+00  0.38750E+00 -0.77500E+00  0.00000E+00  0.00000E+00  0.00000E+00    0.24820E+02  0.22507E+02 -0.47327E+02 -0.22338E+01  0.11977E+01  0.35486E+01      982.00
  0.79610E+00  0.71394E+02    0.40000E+00  0.40000E+00 -0.80000E+00  0.00000E+00  0.00000E+00  0.00000E+00    0.24969E+02  0.22321E+02 -0.47290E+02 -0.21608E+01  0.12951E+01  0.37018E+01      982.00
  0.82094E+00  0.71372E+02    0.41250E+00  0.41250E+00 -0.82500E+00  0.00000E+00  0.00000E+00  0.00000E+00    0.25119E+02  0.22134E+02 -0.47252E+02 -0.21001E+01  0.14000E+01  0.38469E+01      982.00
  0.84577E+00  0.71350E+02    0.42500E+00  0.42500E+00 -0.85000E+00  0.00000E+00  0.00000E+00  0.00000E+00    0.25268E+02  0.21945E+02 -0.47213E+02 -0.20522E+01  0.15101E+01  0.39832E+01      982.00
  0.87058E+00  0.71329E+02    0.43750E+00  0.43750E+00 -0.87500E+00  0.00000E+00  0.00000E+00  0.00000E+00    0.25416E+02  0.21757E+02 -0.47173E+02 -0.20157E+01  0.16218E+01  0.41116E+01      982.00
  0.89538E+00  0.71308E+02    0.45000E+00  0.45000E+00 -0.90000E+00  0.00000E+00  0.00000E+00  0.00000E+00    0.25564E+02  0.21567E+02 -0.47131E+02 -0.19943E+01  0.17262E+01  0.42436E+01      982.00
  0.92017E+00  0.71283E+02    0.46250E+00  0.46250E+00 -0.92500E+00  0.00000E+00  0.00000E+00  0.00000E+00    0.25703E+02  0.21384E+02 -0.47088E+02 -0.19724E+01  0.18441E+01  0.43457E+01      982.00
  0.94494E+00  0.71215E+02    0.47500E+00  0.47500E+00 -0.95000E+00  0.00000E+00  0.00000E+00  0.00000E+00    0.25819E+02  0.21196E+02 -0.47014E+02 -0.19653E+01  0.19426E+01  0.44510E+01      982.00
  0.96969E+00  0.71150E+02    0.48750E+00  0.48750E+00 -0.97500E+00  0.00000E+00  0.00000E+00  0.00000E+00    0.25930E+02  0.21013E+02 -0.46943E+02 -0.19621E+01  0.20389E+01  0.45483E+01      982.00
  0.99444E+00  0.71094E+02    0.50000E+00  0.50000E+00 -0.10000E+01  0.00000E+00  0.00000E+00  0.00000E+00    0.26039E+02  0.20839E+02 -0.46877E+02 -0.19628E+01  0.21313E+01  0.46381E+01      982.00
