          Evm          Svm            E11          E22          E33          E23          E13          E12         SDEV11       SDEV22       SDEV33       SDEV23       SDEV13       SDEV12      TEMP
  0.00000E+00  0.54167E+02    0.00000E+00  0.00000E+00  0.00000E+00  0.00000E+00  0.00000E+00  0.00000E+00    0.13479E+02  0.19937E+02 -0.33417E+02 -0.53797E+01 -0.35693E+01 -0.94023E+01      982.00
  0.23135E-01  0.54649E+02    0.12500E-01  0.12500E-01 -0.25000E-01  0.00000E+00  0.00000E+00  0.00000E+00    0.13952E+02  0.19662E+02 -0.33614E+02 -0.56172E+01 -0.39191E+01 -0.96440E+01      982.00
  0.46200E-01  0.55090E+02    0.25000E-01  0.25000E-01 -0.50000E-01  0.00000E+00  0.00000E+00  0.00000E+00    0.14370E+02  0.19455E+02 -0.33825E+02 -0.58380E+01 -0.40952E+01 -0.98096E+01      982.00
  0.69225E-01  0.55511E+02    0.37500E-01  0.37500E-01 -0.75000E-01  0.00000E+00  0.00000E+00  0.00000E+00    0.14731E+02  0.19315E+02 -0.34046E+02 -0.60215E+01 -0.41850E+01 -0.99375E+01      982.00
  0.92225E-01  0.55923E+02    0.50000E-01  0.50000E-01 -0.10000E+00  0.00000E+00  0.00000E+00  0.00000E+00    0.15040E+02  0.19243E+02 -0.34283E+02 -0.61610E+01 -0.42240E+01 -0.10037E+02      982.00
  0.11521E+00  0.56317E+02    0.62500E-01  0.62500E-01 -0.12500E+00  0.00000E+00  0.00000E+00  0.00000E+00    0.15286E+02  0.19236E+02 -0.34522E+02 -0.62575E+01 -0.42301E+01 -0.10122E+02      982.00
  0.13820E+00  0.56729E+02    0.75000E-01  0.75000E-01 -0.15000E+00  0.00000E+00  0.00000E+00  0.00000E+00    0.15490E+02  0.19291E+02 -0.34781E+02 -0.63192E+01 -0.42216E+01 -0.10201E+02      982.00
  0.16119E+00  0.57161E+02    0.87500E-01  0.87500E-01 -0.17500E+00  0.00000E+00  0.00000E+00  0.00000E+00    0.15659E+02  0.19398E+02 -0.35058E+02 -0.63521E+01 -0.42067E+01 -0.10287E+02      982.00
  0.18419E+00  0.57613E+02    0.10000E+00  0.10000E+00 -0.20000E+00  0.00000E+00  0.00000E+00  0.00000E+00    0.15799E+02  0.19552E+02 -0.35351E+02 -0.63581E+01 -0.41858E+01 -0.10377E+02      982.00
  0.20720E+00  0.58061E+02    0.11250E+00  0.11250E+00 -0.22500E+00  0.00000E+00  0.00000E+00  0.00000E+00    0.15917E+02  0.19734E+02 -0.35651E+02 -0.63375E+01 -0.41663E+01 -0.10453E+02      982.00
  0.23023E+00  0.58494E+02    0.12500E+00  0.12500E+00 -0.25000E+00  0.00000E+00  0.00000E+00  0.00000E+00    0.16029E+02  0.19919E+02 -0.35948E+02 -0.62979E+01 -0.41531E+01 -0.10519E+02      982.00
  0.25327E+00  0.58965E+02    0.13750E+00  0.13750E+00 -0.27500E+00  0.00000E+00  0.00000E+00  0.00000E+00    0.16133E+02  0.20132E+02 -0.36265E+02 -0.62530E+01 -0.41450E+01 -0.10598E+02      982.00
  0.27634E+00  0.59444E+02    0.15000E+00  0.15000E+00 -0.30000E+00  0.00000E+00  0.00000E+00  0.00000E+00    0.16230E+02  0.20359E+02 -0.36589E+02 -0.61991E+01 -0.41415E+01 -0.10676E+02      982.00
  0.29942E+00  0.59922E+02    0.16250E+00  0.16250E+00 -0.32500E+00  0.00000E+00  0.00000E+00  0.00000E+00    0.16322E+02  0.20591E+02 -0.36913E+02 -0.61385E+01 -0.41441E+01 -0.10748E+02      982.00
  0.32252E+00  0.60407E+02    0.17500E+00  0.17500E+00 -0.35000E+00  0.00000E+00  0.00000E+00  0.00000E+00    0.16413E+02  0.20830E+02 -0.37243E+02 -0.60746E+01 -0.41528E+01 -0.10818E+02      982.00
  0.34564E+00  0.60884E+02    0.18750E+00  0.18750E+00 -0.37500E+00  0.00000E+00  0.00000E+00  0.00000E+00    0.16500E+02  0.21070E+02 -0.37569E+02 -0.60065E+01 -0.41658E+01 -0.10879E+02      982.00
  0.36878E+00  0.61365E+02    0.20000E+00  0.20000E+00 -0.40000E+00  0.00000E+00  0.00000E+00  0.00000E+00    0.16589E+02  0.21311E+02 -0.37900E+02 -0.59367E+01 -0.41841E+01 -0.10936E+02      982.00
  0.39194E+00  0.61834E+02    0.21250E+00  0.21250E+00 -0.42500E+00  0.00000E+00  0.00000E+00  0.00000E+00    0.16675E+02  0.21549E+02 -0.38224E+02 -0.58656E+01 -0.42068E+01 -0.10984E+02      982.00
  0.41512E+00  0.62283E+02    0.22500E+00  0.22500E+00 -0.45000E+00  0.00000E+00  0.00000E+00  0.00000E+00    0.16759E+02  0.21779E+02 -0.38538E+02 -0.57905E+01 -0.42296E+01 -0.11022E+02      982.00
  0.43832E+00  0.62725E+02    0.23750E+00  0.23750E+00 -0.47500E+00  0.00000E+00  0.00000E+00  0.00000E+00    0.16842E+02  0.22005E+02 -0.38847E+02 -0.57167E+01 -0.42570E+01 -0.11053E+02      982.00
  0.46155E+00  0.63153E+02    0.25000E+00  0.25000E+00 -0.50000E+00  0.00000E+00  0.00000E+00  0.00000E+00    0.16925E+02  0.22226E+02 -0.39151E+02 -0.56421E+01 -0.42863E+01 -0.11074E+02      982.00
  0.48480E+00  0.63563E+02    0.26250E+00  0.26250E+00 -0.52500E+00  0.00000E+00  0.00000E+00  0.00000E+00    0.17005E+02  0.22438E+02 -0.39443E+02 -0.55658E+01 -0.43157E+01 -0.11088E+02      982.00
  0.50807E+00  0.63956E+02    0.27500E+00  0.27500E+00 -0.55000E+00  0.00000E+00  0.00000E+00  0.00000E+00    0.17084E+02  0.22643E+02 -0.39726E+02 -0.54898E+01 -0.43456E+01 -0.11095E+02      982.00
  0.53136E+00  0.64327E+02    0.28750E+00  0.28750E+00 -0.57500E+00  0.00000E+00  0.00000E+00  0.00000E+00    0.17158E+02  0.22838E+02 -0.39996E+02 -0.54136E+01 -0.43759E+01 -0.11093E+02      982.00
  0.55468E+00  0.64681E+02    0.30000E+00  0.30000E+00 -0.60000E+00  0.00000E+00  0.00000E+00  0.00000E+00    0.17230E+02  0.23026E+02 -0.40255E+02 -0.53370E+01 -0.44052E+01 -0.11085E+02      982.00
  0.57801E+00  0.65017E+02    0.31250E+00  0.31250E+00 -0.62500E+00  0.00000E+00  0.00000E+00  0.00000E+00    0.17300E+02  0.23206E+02 -0.40506E+02 -0.52587E+01 -0.44329E+01 -0.11068E+02      982.00
  0.60138E+00  0.65320E+02    0.32500E+00  0.32500E+00 -0.65000E+00  0.00000E+00  0.00000E+00  0.00000E+00    0.17363E+02  0.23369E+02 -0.40732E+02 -0.51868E+01 -0.44582E+01 -0.11052E+02      982.00
  0.62476E+00  0.65626E+02    0.33750E+00  0.33750E+00 -0.67500E+00  0.00000E+00  0.00000E+00  0.00000E+00    0.17425E+02  0.23539E+02 -0.40964E+02 -0.51154E+01 -0.44741E+01 -0.11025E+02      982.00
  0.64817E+00  0.65910E+02    0.35000E+00  0.35000E+00 -0.70000E+00  0.00000E+00  0.00000E+00  0.00000E+00    0.17482E+02  0.23698E+02 -0.41180E+02 -0.50385E+01 -0.44987E+01 -0.10995E+02      982.00
  0.67160E+00  0.66178E+02    0.36250E+00  0.36250E+00 -0.72500E+00  0.00000E+00  0.00000E+00  0.00000E+00    0.17536E+02  0.23852E+02 -0.41389E+02 -0.49612E+01 -0.45206E+01 -0.10958E+02      982.00
  0.69505E+00  0.66428E+02    0.37500E+00  0.37500E+00 -0.75000E+00  0.00000E+00  0.00000E+00  0.00000E+00    0.17586E+02  0.23998E+02 -0.41584E+02 -0.48846E+01 -0.45427E+01 -0.10918E+02      982.00
  0.71853E+00  0.66665E+02    0.38750E+00  0.38750E+00 -0.77500E+00  0.00000E+00  0.00000E+00  0.00000E+00    0.17632E+02  0.24139E+02 -0.41771E+02 -0.48085E+01 -0.45638E+01 -0.10876E+02      982.00
  0.74202E+00  0.66886E+02    0.40000E+00  0.40000E+00 -0.80000E+00  0.00000E+00  0.00000E+00  0.00000E+00    0.17672E+02  0.24275E+02 -0.41947E+02 -0.47320E+01 -0.45827E+01 -0.10829E+02      982.00
  0.76554E+00  0.67096E+02    0.41250E+00  0.41250E+00 -0.82500E+00  0.00000E+00  0.00000E+00  0.00000E+00    0.17710E+02  0.24407E+02 -0.42117E+02 -0.46568E+01 -0.46011E+01 -0.10780E+02      982.00
  0.78908E+00  0.67293E+02    0.42500E+00  0.42500E+00 -0.85000E+00  0.00000E+00  0.00000E+00  0.00000E+00    0.17743E+02  0.24533E+02 -0.42276E+02 -0.45826E+01 -0.46186E+01 -0.10729E+02      982.00
  0.81264E+00  0.67468E+02    0.43750E+00  0.43750E+00 -0.87500E+00  0.00000E+00  0.00000E+00  0.00000E+00    0.17768E+02  0.24654E+02 -0.42422E+02 -0.45084E+01 -0.46344E+01 -0.10676E+02      982.00
  0.83622E+00  0.67640E+02    0.45000E+00  0.45000E+00 -0.90000E+00  0.00000E+00  0.00000E+00  0.00000E+00    0.17791E+02  0.24773E+02 -0.42564E+02 -0.44352E+01 -0.46491E+01 -0.10621E+02      982.00
  0.85982E+00  0.67728E+02    0.46250E+00  0.46250E+00 -0.92500E+00  0.00000E+00  0.00000E+00  0.00000E+00    0.17795E+02  0.24866E+02 -0.42661E+02 -0.43439E+01 -0.46360E+01 -0.10545E+02      982.00
  0.88344E+00  0.67807E+02    0.47500E+00  0.47500E+00 -0.95000E+00  0.00000E+00  0.00000E+00  0.00000E+00    0.17797E+02  0.24952E+02 -0.42749E+02 -0.42569E+01 -0.46274E+01 -0.10471E+02      982.00
  0.90708E+00  0.67894E+02    0.48750E+00  0.48750E+00 -0.97500E+00  0.00000E+00  0.00000E+00  0.00000E+00    0.17793E+02  0.25047E+02 -0.42840E+02 -0.41793E+01 -0.46169E+01 -0.10399E+02      982.00
  0.93074E+00  0.67965E+02    0.50000E+00  0.50000E+00 -0.10000E+01  0.00000E+00  0.00000E+00  0.00000E+00    0.17787E+02  0.25131E+02 -0.42919E+02 -0.40971E+01 -0.46088E+01 -0.10330E+02      982.00
