          Evm          Svm            E11          E22          E33          E23          E13          E12         SDEV11       SDEV22       SDEV33       SDEV23       SDEV13       SDEV12      TEMP
  0.00000E+00  0.58236E+02    0.00000E+00  0.00000E+00  0.00000E+00  0.00000E+00  0.00000E+00  0.00000E+00    0.18242E+02  0.17602E+02 -0.35844E+02 -0.20437E+01  0.22081E+01  0.12559E+02      982.00
  0.23081E-01  0.58303E+02    0.12500E-01  0.12500E-01 -0.25000E-01  0.00000E+00  0.00000E+00  0.00000E+00    0.18198E+02  0.17619E+02 -0.35817E+02 -0.21438E+01  0.22474E+01  0.12697E+02      982.00
  0.46118E-01  0.58416E+02    0.25000E-01  0.25000E-01 -0.50000E-01  0.00000E+00  0.00000E+00  0.00000E+00    0.18186E+02  0.17623E+02 -0.35809E+02 -0.22106E+01  0.22868E+01  0.12868E+02      982.00
  0.69105E-01  0.58602E+02    0.37500E-01  0.37500E-01 -0.75000E-01  0.00000E+00  0.00000E+00  0.00000E+00    0.18196E+02  0.17641E+02 -0.35837E+02 -0.22747E+01  0.23272E+01  0.13071E+02      982.00
  0.92038E-01  0.58850E+02    0.50000E-01  0.50000E-01 -0.10000E+00  0.00000E+00  0.00000E+00  0.00000E+00    0.18220E+02  0.17672E+02 -0.35892E+02 -0.23317E+01  0.23604E+01  0.13310E+02      982.00
  0.11491E+00  0.59149E+02    0.62500E-01  0.62500E-01 -0.12500E+00  0.00000E+00  0.00000E+00  0.00000E+00    0.18257E+02  0.17716E+02 -0.35973E+02 -0.23815E+01  0.23865E+01  0.13573E+02      982.00
  0.13772E+00  0.59482E+02    0.75000E-01  0.75000E-01 -0.15000E+00  0.00000E+00  0.00000E+00  0.00000E+00    0.18300E+02  0.17770E+02 -0.36070E+02 -0.24236E+01  0.24048E+01  0.13851E+02      982.00
  0.16046E+00  0.59839E+02    0.87500E-01  0.87500E-01 -0.17500E+00  0.00000E+00  0.00000E+00  0.00000E+00    0.18349E+02  0.17832E+02 -0.36182E+02 -0.24580E+01  0.24148E+01  0.14135E+02      982.00
  0.18313E+00  0.60207E+02    0.10000E+00  0.10000E+00 -0.20000E+00  0.00000E+00  0.00000E+00  0.00000E+00    0.18400E+02  0.17900E+02 -0.36300E+02 -0.24831E+01  0.24169E+01  0.14421E+02      982.00
  0.20574E+00  0.60562E+02    0.11250E+00  0.11250E+00 -0.22500E+00  0.00000E+00  0.00000E+00  0.00000E+00    0.18456E+02  0.17962E+02 -0.36418E+02 -0.25006E+01  0.24236E+01  0.14686E+02      982.00
  0.22829E+00  0.60931E+02    0.12500E+00  0.12500E+00 -0.25000E+00  0.00000E+00  0.00000E+00  0.00000E+00    0.18509E+02  0.18035E+02 -0.36543E+02 -0.25108E+01  0.24130E+01  0.14960E+02      982.00
  0.25078E+00  0.61280E+02    0.13750E+00  0.13750E+00 -0.27500E+00  0.00000E+00  0.00000E+00  0.00000E+00    0.18554E+02  0.18105E+02 -0.36659E+02 -0.25136E+01  0.23947E+01  0.15222E+02      982.00
  0.27321E+00  0.61613E+02    0.15000E+00  0.15000E+00 -0.30000E+00  0.00000E+00  0.00000E+00  0.00000E+00    0.18598E+02  0.18174E+02 -0.36772E+02 -0.25102E+01  0.23714E+01  0.15468E+02      982.00
  0.29559E+00  0.61927E+02    0.16250E+00  0.16250E+00 -0.32500E+00  0.00000E+00  0.00000E+00  0.00000E+00    0.18636E+02  0.18247E+02 -0.36882E+02 -0.24997E+01  0.23376E+01  0.15696E+02      982.00
  0.31793E+00  0.62221E+02    0.17500E+00  0.17500E+00 -0.35000E+00  0.00000E+00  0.00000E+00  0.00000E+00    0.18667E+02  0.18315E+02 -0.36983E+02 -0.24820E+01  0.22957E+01  0.15913E+02      982.00
  0.34022E+00  0.62481E+02    0.18750E+00  0.18750E+00 -0.37500E+00  0.00000E+00  0.00000E+00  0.00000E+00    0.18703E+02  0.18369E+02 -0.37072E+02 -0.24682E+01  0.22721E+01  0.16102E+02      982.00
  0.36247E+00  0.62736E+02    0.20000E+00  0.20000E+00 -0.40000E+00  0.00000E+00  0.00000E+00  0.00000E+00    0.18735E+02  0.18426E+02 -0.37161E+02 -0.24458E+01  0.22349E+01  0.16286E+02      982.00
  0.38468E+00  0.62971E+02    0.21250E+00  0.21250E+00 -0.42500E+00  0.00000E+00  0.00000E+00  0.00000E+00    0.18764E+02  0.18478E+02 -0.37243E+02 -0.24208E+01  0.21951E+01  0.16456E+02      982.00
  0.40686E+00  0.63169E+02    0.22500E+00  0.22500E+00 -0.45000E+00  0.00000E+00  0.00000E+00  0.00000E+00    0.18784E+02  0.18527E+02 -0.37312E+02 -0.23918E+01  0.21491E+01  0.16602E+02      982.00
  0.42901E+00  0.63373E+02    0.23750E+00  0.23750E+00 -0.47500E+00  0.00000E+00  0.00000E+00  0.00000E+00    0.18812E+02  0.18574E+02 -0.37386E+02 -0.23655E+01  0.21095E+01  0.16745E+02      982.00
  0.45113E+00  0.63554E+02    0.25000E+00  0.25000E+00 -0.50000E+00  0.00000E+00  0.00000E+00  0.00000E+00    0.18836E+02  0.18614E+02 -0.37450E+02 -0.23388E+01  0.20718E+01  0.16873E+02      982.00
  0.47323E+00  0.63724E+02    0.26250E+00  0.26250E+00 -0.52500E+00  0.00000E+00  0.00000E+00  0.00000E+00    0.18862E+02  0.18652E+02 -0.37514E+02 -0.23125E+01  0.20356E+01  0.16988E+02      982.00
  0.49530E+00  0.63869E+02    0.27500E+00  0.27500E+00 -0.55000E+00  0.00000E+00  0.00000E+00  0.00000E+00    0.18880E+02  0.18684E+02 -0.37565E+02 -0.22797E+01  0.19894E+01  0.17096E+02      982.00
  0.51736E+00  0.64015E+02    0.28750E+00  0.28750E+00 -0.57500E+00  0.00000E+00  0.00000E+00  0.00000E+00    0.18906E+02  0.18715E+02 -0.37621E+02 -0.22574E+01  0.19583E+01  0.17192E+02      982.00
  0.53940E+00  0.64146E+02    0.30000E+00  0.30000E+00 -0.60000E+00  0.00000E+00  0.00000E+00  0.00000E+00    0.18930E+02  0.18740E+02 -0.37670E+02 -0.22369E+01  0.19297E+01  0.17279E+02      982.00
  0.56142E+00  0.64274E+02    0.31250E+00  0.31250E+00 -0.62500E+00  0.00000E+00  0.00000E+00  0.00000E+00    0.18957E+02  0.18764E+02 -0.37721E+02 -0.22176E+01  0.19037E+01  0.17359E+02      982.00
  0.58343E+00  0.64388E+02    0.32500E+00  0.32500E+00 -0.65000E+00  0.00000E+00  0.00000E+00  0.00000E+00    0.18982E+02  0.18784E+02 -0.37766E+02 -0.22003E+01  0.18794E+01  0.17432E+02      982.00
  0.60542E+00  0.64469E+02    0.33750E+00  0.33750E+00 -0.67500E+00  0.00000E+00  0.00000E+00  0.00000E+00    0.19001E+02  0.18797E+02 -0.37798E+02 -0.21877E+01  0.18620E+01  0.17483E+02      982.00
  0.62741E+00  0.64574E+02    0.35000E+00  0.35000E+00 -0.70000E+00  0.00000E+00  0.00000E+00  0.00000E+00    0.19029E+02  0.18814E+02 -0.37842E+02 -0.21739E+01  0.18419E+01  0.17543E+02      982.00
  0.64939E+00  0.64662E+02    0.36250E+00  0.36250E+00 -0.72500E+00  0.00000E+00  0.00000E+00  0.00000E+00    0.19052E+02  0.18825E+02 -0.37877E+02 -0.21613E+01  0.18238E+01  0.17598E+02      982.00
  0.67135E+00  0.64756E+02    0.37500E+00  0.37500E+00 -0.75000E+00  0.00000E+00  0.00000E+00  0.00000E+00    0.19080E+02  0.18838E+02 -0.37918E+02 -0.21505E+01  0.18078E+01  0.17650E+02      982.00
  0.69331E+00  0.64835E+02    0.38750E+00  0.38750E+00 -0.77500E+00  0.00000E+00  0.00000E+00  0.00000E+00    0.19105E+02  0.18846E+02 -0.37951E+02 -0.21412E+01  0.17934E+01  0.17696E+02      982.00
  0.71526E+00  0.64899E+02    0.40000E+00  0.40000E+00 -0.80000E+00  0.00000E+00  0.00000E+00  0.00000E+00    0.19128E+02  0.18849E+02 -0.37977E+02 -0.21277E+01  0.17720E+01  0.17737E+02      982.00
  0.73720E+00  0.64975E+02    0.41250E+00  0.41250E+00 -0.82500E+00  0.00000E+00  0.00000E+00  0.00000E+00    0.19154E+02  0.18856E+02 -0.38010E+02 -0.21208E+01  0.17603E+01  0.17778E+02      982.00
  0.75914E+00  0.65043E+02    0.42500E+00  0.42500E+00 -0.85000E+00  0.00000E+00  0.00000E+00  0.00000E+00    0.19180E+02  0.18860E+02 -0.38040E+02 -0.21152E+01  0.17503E+01  0.17815E+02      982.00
  0.78107E+00  0.65117E+02    0.43750E+00  0.43750E+00 -0.87500E+00  0.00000E+00  0.00000E+00  0.00000E+00    0.19213E+02  0.18858E+02 -0.38071E+02 -0.21046E+01  0.17319E+01  0.17857E+02      982.00
  0.80300E+00  0.65179E+02    0.45000E+00  0.45000E+00 -0.90000E+00  0.00000E+00  0.00000E+00  0.00000E+00    0.19240E+02  0.18860E+02 -0.38100E+02 -0.21007E+01  0.17232E+01  0.17887E+02      982.00
  0.82492E+00  0.65232E+02    0.46250E+00  0.46250E+00 -0.92500E+00  0.00000E+00  0.00000E+00  0.00000E+00    0.19265E+02  0.18859E+02 -0.38124E+02 -0.20980E+01  0.17167E+01  0.17915E+02      982.00
  0.84684E+00  0.65281E+02    0.47500E+00  0.47500E+00 -0.95000E+00  0.00000E+00  0.00000E+00  0.00000E+00    0.19290E+02  0.18856E+02 -0.38145E+02 -0.20959E+01  0.17109E+01  0.17940E+02      982.00
  0.86875E+00  0.65331E+02    0.48750E+00  0.48750E+00 -0.97500E+00  0.00000E+00  0.00000E+00  0.00000E+00    0.19316E+02  0.18854E+02 -0.38170E+02 -0.20947E+01  0.17062E+01  0.17962E+02      982.00
  0.89066E+00  0.65371E+02    0.50000E+00  0.50000E+00 -0.10000E+01  0.00000E+00  0.00000E+00  0.00000E+00    0.19339E+02  0.18848E+02 -0.38187E+02 -0.20941E+01  0.17019E+01  0.17984E+02      982.00
