          Evm          Svm            E11          E22          E33          E23          E13          E12         SDEV11       SDEV22       SDEV33       SDEV23       SDEV13       SDEV12      TEMP
  0.00000E+00  0.57289E+02    0.00000E+00  0.00000E+00  0.00000E+00  0.00000E+00  0.00000E+00  0.00000E+00    0.21779E+02  0.14162E+02 -0.35941E+02 -0.37790E+00  0.39498E+01  0.97426E+01      982.00
  0.23526E-01  0.57306E+02    0.12500E-01  0.12500E-01 -0.25000E-01  0.00000E+00  0.00000E+00  0.00000E+00    0.21327E+02  0.14606E+02 -0.35932E+02 -0.52126E+00  0.37837E+01  0.10021E+02      982.00
  0.47040E-01  0.57448E+02    0.25000E-01  0.25000E-01 -0.50000E-01  0.00000E+00  0.00000E+00  0.00000E+00    0.20868E+02  0.15113E+02 -0.35981E+02 -0.70345E+00  0.36236E+01  0.10354E+02      982.00
  0.70527E-01  0.57664E+02    0.37500E-01  0.37500E-01 -0.75000E-01  0.00000E+00  0.00000E+00  0.00000E+00    0.20417E+02  0.15639E+02 -0.36057E+02 -0.90517E+00  0.34780E+01  0.10709E+02      982.00
  0.93976E-01  0.57927E+02    0.50000E-01  0.50000E-01 -0.10000E+00  0.00000E+00  0.00000E+00  0.00000E+00    0.20009E+02  0.16133E+02 -0.36142E+02 -0.11082E+01  0.33573E+01  0.11072E+02      982.00
  0.11737E+00  0.58246E+02    0.62500E-01  0.62500E-01 -0.12500E+00  0.00000E+00  0.00000E+00  0.00000E+00    0.19687E+02  0.16558E+02 -0.36245E+02 -0.12956E+01  0.32669E+01  0.11436E+02      982.00
  0.14071E+00  0.58608E+02    0.75000E-01  0.75000E-01 -0.15000E+00  0.00000E+00  0.00000E+00  0.00000E+00    0.19444E+02  0.16917E+02 -0.36361E+02 -0.14660E+01  0.31971E+01  0.11807E+02      982.00
  0.16397E+00  0.59009E+02    0.87500E-01  0.87500E-01 -0.17500E+00  0.00000E+00  0.00000E+00  0.00000E+00    0.19277E+02  0.17214E+02 -0.36491E+02 -0.16161E+01  0.31450E+01  0.12182E+02      982.00
  0.18716E+00  0.59432E+02    0.10000E+00  0.10000E+00 -0.20000E+00  0.00000E+00  0.00000E+00  0.00000E+00    0.19173E+02  0.17458E+02 -0.36631E+02 -0.17471E+01  0.31063E+01  0.12555E+02      982.00
  0.21028E+00  0.59866E+02    0.11250E+00  0.11250E+00 -0.22500E+00  0.00000E+00  0.00000E+00  0.00000E+00    0.19113E+02  0.17660E+02 -0.36774E+02 -0.18613E+01  0.30773E+01  0.12921E+02      982.00
  0.23331E+00  0.60293E+02    0.12500E+00  0.12500E+00 -0.25000E+00  0.00000E+00  0.00000E+00  0.00000E+00    0.19089E+02  0.17824E+02 -0.36913E+02 -0.19576E+01  0.30593E+01  0.13275E+02      982.00
  0.25627E+00  0.60712E+02    0.13750E+00  0.13750E+00 -0.27500E+00  0.00000E+00  0.00000E+00  0.00000E+00    0.19078E+02  0.17972E+02 -0.37049E+02 -0.20459E+01  0.30428E+01  0.13617E+02      982.00
  0.27915E+00  0.61116E+02    0.15000E+00  0.15000E+00 -0.30000E+00  0.00000E+00  0.00000E+00  0.00000E+00    0.19078E+02  0.18100E+02 -0.37179E+02 -0.21229E+01  0.30313E+01  0.13944E+02      982.00
  0.30197E+00  0.61498E+02    0.16250E+00  0.16250E+00 -0.32500E+00  0.00000E+00  0.00000E+00  0.00000E+00    0.19075E+02  0.18223E+02 -0.37298E+02 -0.21955E+01  0.30205E+01  0.14254E+02      982.00
  0.32471E+00  0.61855E+02    0.17500E+00  0.17500E+00 -0.35000E+00  0.00000E+00  0.00000E+00  0.00000E+00    0.19067E+02  0.18339E+02 -0.37406E+02 -0.22631E+01  0.30077E+01  0.14547E+02      982.00
  0.34739E+00  0.62182E+02    0.18750E+00  0.18750E+00 -0.37500E+00  0.00000E+00  0.00000E+00  0.00000E+00    0.19053E+02  0.18447E+02 -0.37500E+02 -0.23247E+01  0.29948E+01  0.14822E+02      982.00
  0.37000E+00  0.62485E+02    0.20000E+00  0.20000E+00 -0.40000E+00  0.00000E+00  0.00000E+00  0.00000E+00    0.19026E+02  0.18560E+02 -0.37586E+02 -0.23867E+01  0.29773E+01  0.15077E+02      982.00
  0.39256E+00  0.62765E+02    0.21250E+00  0.21250E+00 -0.42500E+00  0.00000E+00  0.00000E+00  0.00000E+00    0.18987E+02  0.18675E+02 -0.37663E+02 -0.24476E+01  0.29555E+01  0.15315E+02      982.00
  0.41506E+00  0.63017E+02    0.22500E+00  0.22500E+00 -0.45000E+00  0.00000E+00  0.00000E+00  0.00000E+00    0.18938E+02  0.18789E+02 -0.37727E+02 -0.25061E+01  0.29311E+01  0.15534E+02      982.00
  0.43751E+00  0.63253E+02    0.23750E+00  0.23750E+00 -0.47500E+00  0.00000E+00  0.00000E+00  0.00000E+00    0.18883E+02  0.18904E+02 -0.37787E+02 -0.25616E+01  0.29038E+01  0.15741E+02      982.00
  0.45992E+00  0.63467E+02    0.25000E+00  0.25000E+00 -0.50000E+00  0.00000E+00  0.00000E+00  0.00000E+00    0.18821E+02  0.19017E+02 -0.37838E+02 -0.26124E+01  0.28746E+01  0.15932E+02      982.00
  0.48227E+00  0.63667E+02    0.26250E+00  0.26250E+00 -0.52500E+00  0.00000E+00  0.00000E+00  0.00000E+00    0.18753E+02  0.19131E+02 -0.37885E+02 -0.26622E+01  0.28430E+01  0.16110E+02      982.00
  0.50459E+00  0.63850E+02    0.27500E+00  0.27500E+00 -0.55000E+00  0.00000E+00  0.00000E+00  0.00000E+00    0.18688E+02  0.19238E+02 -0.37927E+02 -0.27026E+01  0.28133E+01  0.16273E+02      982.00
  0.52686E+00  0.64011E+02    0.28750E+00  0.28750E+00 -0.57500E+00  0.00000E+00  0.00000E+00  0.00000E+00    0.18622E+02  0.19339E+02 -0.37960E+02 -0.27370E+01  0.27840E+01  0.16421E+02      982.00
  0.54910E+00  0.64161E+02    0.30000E+00  0.30000E+00 -0.60000E+00  0.00000E+00  0.00000E+00  0.00000E+00    0.18553E+02  0.19439E+02 -0.37992E+02 -0.27700E+01  0.27530E+01  0.16560E+02      982.00
  0.57130E+00  0.64303E+02    0.31250E+00  0.31250E+00 -0.62500E+00  0.00000E+00  0.00000E+00  0.00000E+00    0.18491E+02  0.19530E+02 -0.38022E+02 -0.27926E+01  0.27242E+01  0.16690E+02      982.00
  0.59348E+00  0.64427E+02    0.32500E+00  0.32500E+00 -0.65000E+00  0.00000E+00  0.00000E+00  0.00000E+00    0.18433E+02  0.19614E+02 -0.38047E+02 -0.28082E+01  0.26988E+01  0.16805E+02      982.00
  0.61562E+00  0.64545E+02    0.33750E+00  0.33750E+00 -0.67500E+00  0.00000E+00  0.00000E+00  0.00000E+00    0.18375E+02  0.19697E+02 -0.38072E+02 -0.28228E+01  0.26702E+01  0.16913E+02      982.00
  0.63774E+00  0.64651E+02    0.35000E+00  0.35000E+00 -0.70000E+00  0.00000E+00  0.00000E+00  0.00000E+00    0.18322E+02  0.19770E+02 -0.38093E+02 -0.28279E+01  0.26442E+01  0.17013E+02      982.00
  0.65984E+00  0.64762E+02    0.36250E+00  0.36250E+00 -0.72500E+00  0.00000E+00  0.00000E+00  0.00000E+00    0.18277E+02  0.19840E+02 -0.38116E+02 -0.28307E+01  0.26226E+01  0.17113E+02      982.00
  0.68191E+00  0.64830E+02    0.37500E+00  0.37500E+00 -0.75000E+00  0.00000E+00  0.00000E+00  0.00000E+00    0.18226E+02  0.19902E+02 -0.38129E+02 -0.28289E+01  0.25930E+01  0.17182E+02      982.00
  0.70396E+00  0.64916E+02    0.38750E+00  0.38750E+00 -0.77500E+00  0.00000E+00  0.00000E+00  0.00000E+00    0.18188E+02  0.19958E+02 -0.38146E+02 -0.28208E+01  0.25718E+01  0.17261E+02      982.00
  0.72600E+00  0.64998E+02    0.40000E+00  0.40000E+00 -0.80000E+00  0.00000E+00  0.00000E+00  0.00000E+00    0.18154E+02  0.20010E+02 -0.38164E+02 -0.28088E+01  0.25505E+01  0.17338E+02      982.00
  0.74802E+00  0.65070E+02    0.41250E+00  0.41250E+00 -0.82500E+00  0.00000E+00  0.00000E+00  0.00000E+00    0.18123E+02  0.20056E+02 -0.38179E+02 -0.27942E+01  0.25299E+01  0.17407E+02      982.00
  0.77002E+00  0.65118E+02    0.42500E+00  0.42500E+00 -0.85000E+00  0.00000E+00  0.00000E+00  0.00000E+00    0.18089E+02  0.20101E+02 -0.38190E+02 -0.27732E+01  0.24997E+01  0.17454E+02      982.00
  0.79201E+00  0.65185E+02    0.43750E+00  0.43750E+00 -0.87500E+00  0.00000E+00  0.00000E+00  0.00000E+00    0.18065E+02  0.20140E+02 -0.38205E+02 -0.27534E+01  0.24788E+01  0.17517E+02      982.00
  0.81399E+00  0.65245E+02    0.45000E+00  0.45000E+00 -0.90000E+00  0.00000E+00  0.00000E+00  0.00000E+00    0.18043E+02  0.20175E+02 -0.38218E+02 -0.27316E+01  0.24572E+01  0.17574E+02      982.00
  0.83596E+00  0.65297E+02    0.46250E+00  0.46250E+00 -0.92500E+00  0.00000E+00  0.00000E+00  0.00000E+00    0.18023E+02  0.20205E+02 -0.38229E+02 -0.27099E+01  0.24365E+01  0.17627E+02      982.00
  0.85791E+00  0.65353E+02    0.47500E+00  0.47500E+00 -0.95000E+00  0.00000E+00  0.00000E+00  0.00000E+00    0.18009E+02  0.20235E+02 -0.38244E+02 -0.26861E+01  0.24161E+01  0.17676E+02      982.00
  0.87986E+00  0.65402E+02    0.48750E+00  0.48750E+00 -0.97500E+00  0.00000E+00  0.00000E+00  0.00000E+00    0.17995E+02  0.20260E+02 -0.38255E+02 -0.26629E+01  0.23961E+01  0.17723E+02      982.00
  0.90179E+00  0.65445E+02    0.50000E+00  0.50000E+00 -0.10000E+01  0.00000E+00  0.00000E+00  0.00000E+00    0.17982E+02  0.20283E+02 -0.38265E+02 -0.26384E+01  0.23743E+01  0.17765E+02      982.00
