          Evm          Svm            E11          E22          E33          E23          E13          E12         SDEV11       SDEV22       SDEV33       SDEV23       SDEV13       SDEV12      TEMP
  0.00000E+00  0.62646E+02    0.00000E+00  0.00000E+00  0.00000E+00  0.00000E+00  0.00000E+00  0.00000E+00    0.22595E+02  0.16526E+02 -0.39122E+02  0.65637E+01  0.33954E+01 -0.98223E+01      982.00
  0.23418E-01  0.62556E+02    0.12500E-01  0.12500E-01 -0.25000E-01  0.00000E+00  0.00000E+00  0.00000E+00    0.22707E+02  0.16499E+02 -0.39207E+02  0.62914E+01  0.33801E+01 -0.95339E+01      982.00
  0.46921E-01  0.62473E+02    0.25000E-01  0.25000E-01 -0.50000E-01  0.00000E+00  0.00000E+00  0.00000E+00    0.22793E+02  0.16495E+02 -0.39288E+02  0.60030E+01  0.34741E+01 -0.92339E+01      982.00
  0.70504E-01  0.62487E+02    0.37500E-01  0.37500E-01 -0.75000E-01  0.00000E+00  0.00000E+00  0.00000E+00    0.22915E+02  0.16489E+02 -0.39404E+02  0.57332E+01  0.36696E+01 -0.89643E+01      982.00
  0.94152E-01  0.62580E+02    0.50000E-01  0.50000E-01 -0.10000E+00  0.00000E+00  0.00000E+00  0.00000E+00    0.23066E+02  0.16478E+02 -0.39544E+02  0.55056E+01  0.38920E+01 -0.87357E+01      982.00
  0.11785E+00  0.62751E+02    0.62500E-01  0.62500E-01 -0.12500E+00  0.00000E+00  0.00000E+00  0.00000E+00    0.23242E+02  0.16470E+02 -0.39712E+02  0.53266E+01  0.40959E+01 -0.85543E+01      982.00
  0.14158E+00  0.62970E+02    0.75000E-01  0.75000E-01 -0.15000E+00  0.00000E+00  0.00000E+00  0.00000E+00    0.23435E+02  0.16461E+02 -0.39896E+02  0.51870E+01  0.42589E+01 -0.84138E+01      982.00
  0.16534E+00  0.63227E+02    0.87500E-01  0.87500E-01 -0.17500E+00  0.00000E+00  0.00000E+00  0.00000E+00    0.23651E+02  0.16442E+02 -0.40093E+02  0.50746E+01  0.43806E+01 -0.83091E+01      982.00
  0.18912E+00  0.63519E+02    0.10000E+00  0.10000E+00 -0.20000E+00  0.00000E+00  0.00000E+00  0.00000E+00    0.23879E+02  0.16425E+02 -0.40304E+02  0.49910E+01  0.44618E+01 -0.82371E+01      982.00
  0.21291E+00  0.63839E+02    0.11250E+00  0.11250E+00 -0.22500E+00  0.00000E+00  0.00000E+00  0.00000E+00    0.24129E+02  0.16400E+02 -0.40530E+02  0.49214E+01  0.45106E+01 -0.81842E+01      982.00
  0.23672E+00  0.64170E+02    0.12500E+00  0.12500E+00 -0.25000E+00  0.00000E+00  0.00000E+00  0.00000E+00    0.24382E+02  0.16375E+02 -0.40757E+02  0.48701E+01  0.45316E+01 -0.81515E+01      982.00
  0.26054E+00  0.64521E+02    0.13750E+00  0.13750E+00 -0.27500E+00  0.00000E+00  0.00000E+00  0.00000E+00    0.24647E+02  0.16348E+02 -0.40996E+02  0.48307E+01  0.45324E+01 -0.81281E+01      982.00
  0.28436E+00  0.64871E+02    0.15000E+00  0.15000E+00 -0.30000E+00  0.00000E+00  0.00000E+00  0.00000E+00    0.24920E+02  0.16312E+02 -0.41232E+02  0.47975E+01  0.45189E+01 -0.81079E+01      982.00
  0.30820E+00  0.65220E+02    0.16250E+00  0.16250E+00 -0.32500E+00  0.00000E+00  0.00000E+00  0.00000E+00    0.25186E+02  0.16281E+02 -0.41467E+02  0.47760E+01  0.44921E+01 -0.80894E+01      982.00
  0.33204E+00  0.65563E+02    0.17500E+00  0.17500E+00 -0.35000E+00  0.00000E+00  0.00000E+00  0.00000E+00    0.25451E+02  0.16246E+02 -0.41697E+02  0.47607E+01  0.44575E+01 -0.80689E+01      982.00
  0.35589E+00  0.65899E+02    0.18750E+00  0.18750E+00 -0.37500E+00  0.00000E+00  0.00000E+00  0.00000E+00    0.25717E+02  0.16207E+02 -0.41924E+02  0.47454E+01  0.44182E+01 -0.80435E+01      982.00
  0.37975E+00  0.66210E+02    0.20000E+00  0.20000E+00 -0.40000E+00  0.00000E+00  0.00000E+00  0.00000E+00    0.25967E+02  0.16166E+02 -0.42133E+02  0.47393E+01  0.43747E+01 -0.80141E+01      982.00
  0.40361E+00  0.66517E+02    0.21250E+00  0.21250E+00 -0.42500E+00  0.00000E+00  0.00000E+00  0.00000E+00    0.26219E+02  0.16123E+02 -0.42342E+02  0.47296E+01  0.43300E+01 -0.79760E+01      982.00
  0.42748E+00  0.66803E+02    0.22500E+00  0.22500E+00 -0.45000E+00  0.00000E+00  0.00000E+00  0.00000E+00    0.26456E+02  0.16080E+02 -0.42535E+02  0.47291E+01  0.42830E+01 -0.79342E+01      982.00
  0.45136E+00  0.67071E+02    0.23750E+00  0.23750E+00 -0.47500E+00  0.00000E+00  0.00000E+00  0.00000E+00    0.26683E+02  0.16036E+02 -0.42719E+02  0.47304E+01  0.42349E+01 -0.78872E+01      982.00
  0.47525E+00  0.67325E+02    0.25000E+00  0.25000E+00 -0.50000E+00  0.00000E+00  0.00000E+00  0.00000E+00    0.26902E+02  0.15991E+02 -0.42893E+02  0.47319E+01  0.41862E+01 -0.78327E+01      982.00
  0.49914E+00  0.67553E+02    0.26250E+00  0.26250E+00 -0.52500E+00  0.00000E+00  0.00000E+00  0.00000E+00    0.27115E+02  0.15934E+02 -0.43049E+02  0.47285E+01  0.41428E+01 -0.77748E+01      982.00
  0.52303E+00  0.67769E+02    0.27500E+00  0.27500E+00 -0.55000E+00  0.00000E+00  0.00000E+00  0.00000E+00    0.27312E+02  0.15887E+02 -0.43199E+02  0.47343E+01  0.40948E+01 -0.77121E+01      982.00
  0.54694E+00  0.67976E+02    0.28750E+00  0.28750E+00 -0.57500E+00  0.00000E+00  0.00000E+00  0.00000E+00    0.27504E+02  0.15838E+02 -0.43342E+02  0.47384E+01  0.40473E+01 -0.76449E+01      982.00
  0.57085E+00  0.68161E+02    0.30000E+00  0.30000E+00 -0.60000E+00  0.00000E+00  0.00000E+00  0.00000E+00    0.27694E+02  0.15777E+02 -0.43470E+02  0.47376E+01  0.40071E+01 -0.75754E+01      982.00
  0.59476E+00  0.68338E+02    0.31250E+00  0.31250E+00 -0.62500E+00  0.00000E+00  0.00000E+00  0.00000E+00    0.27871E+02  0.15724E+02 -0.43595E+02  0.47412E+01  0.39622E+01 -0.75020E+01      982.00
  0.61869E+00  0.68502E+02    0.32500E+00  0.32500E+00 -0.65000E+00  0.00000E+00  0.00000E+00  0.00000E+00    0.28040E+02  0.15670E+02 -0.43709E+02  0.47457E+01  0.39173E+01 -0.74281E+01      982.00
  0.64261E+00  0.68643E+02    0.33750E+00  0.33750E+00 -0.67500E+00  0.00000E+00  0.00000E+00  0.00000E+00    0.28195E+02  0.15615E+02 -0.43809E+02  0.47512E+01  0.38728E+01 -0.73517E+01      982.00
  0.66655E+00  0.68787E+02    0.35000E+00  0.35000E+00 -0.70000E+00  0.00000E+00  0.00000E+00  0.00000E+00    0.28350E+02  0.15561E+02 -0.43911E+02  0.47562E+01  0.38286E+01 -0.72756E+01      982.00
  0.69049E+00  0.68914E+02    0.36250E+00  0.36250E+00 -0.72500E+00  0.00000E+00  0.00000E+00  0.00000E+00    0.28506E+02  0.15494E+02 -0.44000E+02  0.47564E+01  0.37905E+01 -0.71922E+01      982.00
  0.71443E+00  0.69036E+02    0.37500E+00  0.37500E+00 -0.75000E+00  0.00000E+00  0.00000E+00  0.00000E+00    0.28647E+02  0.15439E+02 -0.44086E+02  0.47609E+01  0.37482E+01 -0.71146E+01      982.00
  0.73838E+00  0.69139E+02    0.38750E+00  0.38750E+00 -0.77500E+00  0.00000E+00  0.00000E+00  0.00000E+00    0.28768E+02  0.15391E+02 -0.44159E+02  0.47635E+01  0.37071E+01 -0.70500E+01      982.00
  0.76233E+00  0.69245E+02    0.40000E+00  0.40000E+00 -0.80000E+00  0.00000E+00  0.00000E+00  0.00000E+00    0.28900E+02  0.15335E+02 -0.44235E+02  0.47676E+01  0.36654E+01 -0.69719E+01      982.00
  0.78628E+00  0.69341E+02    0.41250E+00  0.41250E+00 -0.82500E+00  0.00000E+00  0.00000E+00  0.00000E+00    0.29034E+02  0.15268E+02 -0.44302E+02  0.47698E+01  0.36309E+01 -0.68879E+01      982.00
  0.81024E+00  0.69426E+02    0.42500E+00  0.42500E+00 -0.85000E+00  0.00000E+00  0.00000E+00  0.00000E+00    0.29151E+02  0.15211E+02 -0.44362E+02  0.47741E+01  0.35900E+01 -0.68111E+01      982.00
  0.83420E+00  0.69505E+02    0.43750E+00  0.43750E+00 -0.87500E+00  0.00000E+00  0.00000E+00  0.00000E+00    0.29265E+02  0.15153E+02 -0.44418E+02  0.47774E+01  0.35503E+01 -0.67348E+01      982.00
  0.85817E+00  0.69588E+02    0.45000E+00  0.45000E+00 -0.90000E+00  0.00000E+00  0.00000E+00  0.00000E+00    0.29402E+02  0.15076E+02 -0.44478E+02  0.47806E+01  0.35056E+01 -0.66349E+01      982.00
  0.88214E+00  0.69597E+02    0.46250E+00  0.46250E+00 -0.92500E+00  0.00000E+00  0.00000E+00  0.00000E+00    0.29469E+02  0.15025E+02 -0.44494E+02  0.47650E+01  0.34402E+01 -0.65628E+01      982.00
  0.90611E+00  0.69608E+02    0.47500E+00  0.47500E+00 -0.95000E+00  0.00000E+00  0.00000E+00  0.00000E+00    0.29537E+02  0.14973E+02 -0.44511E+02  0.47539E+01  0.33858E+01 -0.64903E+01      982.00
  0.93009E+00  0.69622E+02    0.48750E+00  0.48750E+00 -0.97500E+00  0.00000E+00  0.00000E+00  0.00000E+00    0.29608E+02  0.14919E+02 -0.44527E+02  0.47416E+01  0.33345E+01 -0.64180E+01      982.00
  0.95407E+00  0.69631E+02    0.50000E+00  0.50000E+00 -0.10000E+01  0.00000E+00  0.00000E+00  0.00000E+00    0.29673E+02  0.14867E+02 -0.44540E+02  0.47310E+01  0.32839E+01 -0.63482E+01      982.00
