          Evm          Svm            E11          E22          E33          E23          E13          E12         SDEV11       SDEV22       SDEV33       SDEV23       SDEV13       SDEV12      TEMP
  0.00000E+00  0.60106E+02    0.00000E+00  0.00000E+00  0.00000E+00  0.00000E+00  0.00000E+00  0.00000E+00    0.16210E+02  0.21312E+02 -0.37522E+02 -0.56424E+01  0.28192E+01  0.10103E+02      982.00
  0.23409E-01  0.60350E+02    0.12500E-01  0.12500E-01 -0.25000E-01  0.00000E+00  0.00000E+00  0.00000E+00    0.16892E+02  0.20724E+02 -0.37615E+02 -0.52433E+01  0.29736E+01  0.10624E+02      982.00
  0.46782E-01  0.60637E+02    0.25000E-01  0.25000E-01 -0.50000E-01  0.00000E+00  0.00000E+00  0.00000E+00    0.17526E+02  0.20189E+02 -0.37716E+02 -0.48587E+01  0.30832E+01  0.11130E+02      982.00
  0.70107E-01  0.60937E+02    0.37500E-01  0.37500E-01 -0.75000E-01  0.00000E+00  0.00000E+00  0.00000E+00    0.18108E+02  0.19701E+02 -0.37809E+02 -0.45017E+01  0.31663E+01  0.11606E+02      982.00
  0.93375E-01  0.61194E+02    0.50000E-01  0.50000E-01 -0.10000E+00  0.00000E+00  0.00000E+00  0.00000E+00    0.18602E+02  0.19271E+02 -0.37872E+02 -0.41943E+01  0.32265E+01  0.12015E+02      982.00
  0.11658E+00  0.61378E+02    0.62500E-01  0.62500E-01 -0.12500E+00  0.00000E+00  0.00000E+00  0.00000E+00    0.18990E+02  0.18915E+02 -0.37904E+02 -0.39237E+01  0.32473E+01  0.12340E+02      982.00
  0.13974E+00  0.61525E+02    0.75000E-01  0.75000E-01 -0.15000E+00  0.00000E+00  0.00000E+00  0.00000E+00    0.19285E+02  0.18646E+02 -0.37931E+02 -0.36656E+01  0.32047E+01  0.12605E+02      982.00
  0.16286E+00  0.61671E+02    0.87500E-01  0.87500E-01 -0.17500E+00  0.00000E+00  0.00000E+00  0.00000E+00    0.19516E+02  0.18453E+02 -0.37969E+02 -0.34099E+01  0.31039E+01  0.12844E+02      982.00
  0.18595E+00  0.61835E+02    0.10000E+00  0.10000E+00 -0.20000E+00  0.00000E+00  0.00000E+00  0.00000E+00    0.19700E+02  0.18322E+02 -0.38023E+02 -0.31636E+01  0.29631E+01  0.13076E+02      982.00
  0.20901E+00  0.62024E+02    0.11250E+00  0.11250E+00 -0.22500E+00  0.00000E+00  0.00000E+00  0.00000E+00    0.19850E+02  0.18241E+02 -0.38091E+02 -0.29347E+01  0.28023E+01  0.13305E+02      982.00
  0.23204E+00  0.62241E+02    0.12500E+00  0.12500E+00 -0.25000E+00  0.00000E+00  0.00000E+00  0.00000E+00    0.19975E+02  0.18200E+02 -0.38175E+02 -0.27257E+01  0.26356E+01  0.13533E+02      982.00
  0.25504E+00  0.62474E+02    0.13750E+00  0.13750E+00 -0.27500E+00  0.00000E+00  0.00000E+00  0.00000E+00    0.20075E+02  0.18189E+02 -0.38264E+02 -0.25420E+01  0.24724E+01  0.13763E+02      982.00
  0.27801E+00  0.62720E+02    0.15000E+00  0.15000E+00 -0.30000E+00  0.00000E+00  0.00000E+00  0.00000E+00    0.20154E+02  0.18202E+02 -0.38355E+02 -0.23804E+01  0.23161E+01  0.13998E+02      982.00
  0.30094E+00  0.62976E+02    0.16250E+00  0.16250E+00 -0.32500E+00  0.00000E+00  0.00000E+00  0.00000E+00    0.20215E+02  0.18229E+02 -0.38444E+02 -0.22374E+01  0.21673E+01  0.14241E+02      982.00
  0.32383E+00  0.63239E+02    0.17500E+00  0.17500E+00 -0.35000E+00  0.00000E+00  0.00000E+00  0.00000E+00    0.20263E+02  0.18271E+02 -0.38535E+02 -0.21272E+01  0.20412E+01  0.14481E+02      982.00
  0.34668E+00  0.63503E+02    0.18750E+00  0.18750E+00 -0.37500E+00  0.00000E+00  0.00000E+00  0.00000E+00    0.20305E+02  0.18317E+02 -0.38622E+02 -0.20329E+01  0.19287E+01  0.14719E+02      982.00
  0.36949E+00  0.63759E+02    0.20000E+00  0.20000E+00 -0.40000E+00  0.00000E+00  0.00000E+00  0.00000E+00    0.20342E+02  0.18364E+02 -0.38706E+02 -0.19582E+01  0.18353E+01  0.14942E+02      982.00
  0.39225E+00  0.64013E+02    0.21250E+00  0.21250E+00 -0.42500E+00  0.00000E+00  0.00000E+00  0.00000E+00    0.20377E+02  0.18408E+02 -0.38785E+02 -0.18901E+01  0.17482E+01  0.15169E+02      982.00
  0.41497E+00  0.64269E+02    0.22500E+00  0.22500E+00 -0.45000E+00  0.00000E+00  0.00000E+00  0.00000E+00    0.20406E+02  0.18454E+02 -0.38859E+02 -0.18255E+01  0.16614E+01  0.15403E+02      982.00
  0.43765E+00  0.64506E+02    0.23750E+00  0.23750E+00 -0.47500E+00  0.00000E+00  0.00000E+00  0.00000E+00    0.20436E+02  0.18493E+02 -0.38928E+02 -0.17802E+01  0.15963E+01  0.15613E+02      982.00
  0.46028E+00  0.64731E+02    0.25000E+00  0.25000E+00 -0.50000E+00  0.00000E+00  0.00000E+00  0.00000E+00    0.20467E+02  0.18526E+02 -0.38993E+02 -0.17434E+01  0.15413E+01  0.15812E+02      982.00
  0.48287E+00  0.64945E+02    0.26250E+00  0.26250E+00 -0.52500E+00  0.00000E+00  0.00000E+00  0.00000E+00    0.20498E+02  0.18555E+02 -0.39052E+02 -0.17143E+01  0.14949E+01  0.16000E+02      982.00
  0.50542E+00  0.65146E+02    0.27500E+00  0.27500E+00 -0.55000E+00  0.00000E+00  0.00000E+00  0.00000E+00    0.20529E+02  0.18579E+02 -0.39108E+02 -0.16919E+01  0.14558E+01  0.16176E+02      982.00
  0.52793E+00  0.65335E+02    0.28750E+00  0.28750E+00 -0.57500E+00  0.00000E+00  0.00000E+00  0.00000E+00    0.20560E+02  0.18599E+02 -0.39158E+02 -0.16754E+01  0.14236E+01  0.16342E+02      982.00
  0.55040E+00  0.65513E+02    0.30000E+00  0.30000E+00 -0.60000E+00  0.00000E+00  0.00000E+00  0.00000E+00    0.20588E+02  0.18618E+02 -0.39206E+02 -0.16612E+01  0.13910E+01  0.16497E+02      982.00
  0.57285E+00  0.65677E+02    0.31250E+00  0.31250E+00 -0.62500E+00  0.00000E+00  0.00000E+00  0.00000E+00    0.20618E+02  0.18631E+02 -0.39248E+02 -0.16545E+01  0.13695E+01  0.16640E+02      982.00
  0.59526E+00  0.65830E+02    0.32500E+00  0.32500E+00 -0.65000E+00  0.00000E+00  0.00000E+00  0.00000E+00    0.20649E+02  0.18639E+02 -0.39288E+02 -0.16516E+01  0.13530E+01  0.16772E+02      982.00
  0.61764E+00  0.65966E+02    0.33750E+00  0.33750E+00 -0.67500E+00  0.00000E+00  0.00000E+00  0.00000E+00    0.20679E+02  0.18643E+02 -0.39322E+02 -0.16464E+01  0.13327E+01  0.16891E+02      982.00
  0.63999E+00  0.66097E+02    0.35000E+00  0.35000E+00 -0.70000E+00  0.00000E+00  0.00000E+00  0.00000E+00    0.20710E+02  0.18646E+02 -0.39356E+02 -0.16496E+01  0.13229E+01  0.17003E+02      982.00
  0.66232E+00  0.66231E+02    0.36250E+00  0.36250E+00 -0.72500E+00  0.00000E+00  0.00000E+00  0.00000E+00    0.20744E+02  0.18647E+02 -0.39391E+02 -0.16526E+01  0.13137E+01  0.17113E+02      982.00
  0.68462E+00  0.66343E+02    0.37500E+00  0.37500E+00 -0.75000E+00  0.00000E+00  0.00000E+00  0.00000E+00    0.20776E+02  0.18643E+02 -0.39419E+02 -0.16607E+01  0.13113E+01  0.17209E+02      982.00
  0.70690E+00  0.66448E+02    0.38750E+00  0.38750E+00 -0.77500E+00  0.00000E+00  0.00000E+00  0.00000E+00    0.20807E+02  0.18638E+02 -0.39445E+02 -0.16694E+01  0.13098E+01  0.17297E+02      982.00
  0.72916E+00  0.66545E+02    0.40000E+00  0.40000E+00 -0.80000E+00  0.00000E+00  0.00000E+00  0.00000E+00    0.20837E+02  0.18631E+02 -0.39468E+02 -0.16793E+01  0.13098E+01  0.17379E+02      982.00
  0.75141E+00  0.66635E+02    0.41250E+00  0.41250E+00 -0.82500E+00  0.00000E+00  0.00000E+00  0.00000E+00    0.20867E+02  0.18623E+02 -0.39490E+02 -0.16900E+01  0.13110E+01  0.17454E+02      982.00
  0.77363E+00  0.66719E+02    0.42500E+00  0.42500E+00 -0.85000E+00  0.00000E+00  0.00000E+00  0.00000E+00    0.20897E+02  0.18614E+02 -0.39510E+02 -0.17013E+01  0.13132E+01  0.17524E+02      982.00
  0.79584E+00  0.66797E+02    0.43750E+00  0.43750E+00 -0.87500E+00  0.00000E+00  0.00000E+00  0.00000E+00    0.20926E+02  0.18603E+02 -0.39529E+02 -0.17130E+01  0.13163E+01  0.17589E+02      982.00
  0.81803E+00  0.66870E+02    0.45000E+00  0.45000E+00 -0.90000E+00  0.00000E+00  0.00000E+00  0.00000E+00    0.20954E+02  0.18592E+02 -0.39546E+02 -0.17249E+01  0.13199E+01  0.17649E+02      982.00
  0.84020E+00  0.66968E+02    0.46250E+00  0.46250E+00 -0.92500E+00  0.00000E+00  0.00000E+00  0.00000E+00    0.20996E+02  0.18567E+02 -0.39563E+02 -0.17441E+01  0.13274E+01  0.17740E+02      982.00
  0.86236E+00  0.67000E+02    0.47500E+00  0.47500E+00 -0.95000E+00  0.00000E+00  0.00000E+00  0.00000E+00    0.21011E+02  0.18566E+02 -0.39577E+02 -0.17500E+01  0.13289E+01  0.17755E+02      982.00
  0.88451E+00  0.67084E+02    0.48750E+00  0.48750E+00 -0.97500E+00  0.00000E+00  0.00000E+00  0.00000E+00    0.21051E+02  0.18539E+02 -0.39590E+02 -0.17689E+01  0.13376E+01  0.17834E+02      982.00
  0.90664E+00  0.67113E+02    0.50000E+00  0.50000E+00 -0.10000E+01  0.00000E+00  0.00000E+00  0.00000E+00    0.21065E+02  0.18538E+02 -0.39603E+02 -0.17744E+01  0.13390E+01  0.17847E+02      982.00
