          Evm          Svm            E11          E22          E33          E23          E13          E12         SDEV11       SDEV22       SDEV33       SDEV23       SDEV13       SDEV12      TEMP
  0.00000E+00  0.62658E+02    0.00000E+00  0.00000E+00  0.00000E+00  0.00000E+00  0.00000E+00  0.00000E+00    0.21081E+02  0.18169E+02 -0.39251E+02 -0.28183E+01  0.26084E+01  0.11677E+02      982.00
  0.23491E-01  0.62619E+02    0.12500E-01  0.12500E-01 -0.25000E-01  0.00000E+00  0.00000E+00  0.00000E+00    0.21300E+02  0.18000E+02 -0.39299E+02 -0.28075E+01  0.27827E+01  0.11418E+02      982.00
  0.47026E-01  0.62627E+02    0.25000E-01  0.25000E-01 -0.50000E-01  0.00000E+00  0.00000E+00  0.00000E+00    0.21494E+02  0.17871E+02 -0.39365E+02 -0.27269E+01  0.29154E+01  0.11224E+02      982.00
  0.70597E-01  0.62677E+02    0.37500E-01  0.37500E-01 -0.75000E-01  0.00000E+00  0.00000E+00  0.00000E+00    0.21700E+02  0.17745E+02 -0.39444E+02 -0.26253E+01  0.30178E+01  0.11076E+02      982.00
  0.94196E-01  0.62766E+02    0.50000E-01  0.50000E-01 -0.10000E+00  0.00000E+00  0.00000E+00  0.00000E+00    0.21912E+02  0.17625E+02 -0.39537E+02 -0.25236E+01  0.30886E+01  0.10968E+02      982.00
  0.11782E+00  0.62889E+02    0.62500E-01  0.62500E-01 -0.12500E+00  0.00000E+00  0.00000E+00  0.00000E+00    0.22126E+02  0.17515E+02 -0.39641E+02 -0.24324E+01  0.31307E+01  0.10897E+02      982.00
  0.14146E+00  0.63049E+02    0.75000E-01  0.75000E-01 -0.15000E+00  0.00000E+00  0.00000E+00  0.00000E+00    0.22336E+02  0.17423E+02 -0.39759E+02 -0.23563E+01  0.31500E+01  0.10861E+02      982.00
  0.16510E+00  0.63236E+02    0.87500E-01  0.87500E-01 -0.17500E+00  0.00000E+00  0.00000E+00  0.00000E+00    0.22545E+02  0.17342E+02 -0.39887E+02 -0.22971E+01  0.31497E+01  0.10851E+02      982.00
  0.18876E+00  0.63452E+02    0.10000E+00  0.10000E+00 -0.20000E+00  0.00000E+00  0.00000E+00  0.00000E+00    0.22738E+02  0.17289E+02 -0.40027E+02 -0.22534E+01  0.31382E+01  0.10867E+02      982.00
  0.21241E+00  0.63691E+02    0.11250E+00  0.11250E+00 -0.22500E+00  0.00000E+00  0.00000E+00  0.00000E+00    0.22920E+02  0.17257E+02 -0.40177E+02 -0.22241E+01  0.31185E+01  0.10903E+02      982.00
  0.23607E+00  0.63940E+02    0.12500E+00  0.12500E+00 -0.25000E+00  0.00000E+00  0.00000E+00  0.00000E+00    0.23096E+02  0.17233E+02 -0.40329E+02 -0.22073E+01  0.30892E+01  0.10952E+02      982.00
  0.25972E+00  0.64210E+02    0.13750E+00  0.13750E+00 -0.27500E+00  0.00000E+00  0.00000E+00  0.00000E+00    0.23256E+02  0.17236E+02 -0.40492E+02 -0.22019E+01  0.30611E+01  0.11014E+02      982.00
  0.28337E+00  0.64480E+02    0.15000E+00  0.15000E+00 -0.30000E+00  0.00000E+00  0.00000E+00  0.00000E+00    0.23409E+02  0.17244E+02 -0.40653E+02 -0.22053E+01  0.30261E+01  0.11085E+02      982.00
  0.30701E+00  0.64763E+02    0.16250E+00  0.16250E+00 -0.32500E+00  0.00000E+00  0.00000E+00  0.00000E+00    0.23546E+02  0.17277E+02 -0.40823E+02 -0.22165E+01  0.29957E+01  0.11158E+02      982.00
  0.33065E+00  0.65047E+02    0.17500E+00  0.17500E+00 -0.35000E+00  0.00000E+00  0.00000E+00  0.00000E+00    0.23670E+02  0.17323E+02 -0.40993E+02 -0.22332E+01  0.29653E+01  0.11233E+02      982.00
  0.35428E+00  0.65326E+02    0.18750E+00  0.18750E+00 -0.37500E+00  0.00000E+00  0.00000E+00  0.00000E+00    0.23790E+02  0.17369E+02 -0.41158E+02 -0.22552E+01  0.29290E+01  0.11313E+02      982.00
  0.37791E+00  0.65600E+02    0.20000E+00  0.20000E+00 -0.40000E+00  0.00000E+00  0.00000E+00  0.00000E+00    0.23892E+02  0.17432E+02 -0.41324E+02 -0.22793E+01  0.28981E+01  0.11386E+02      982.00
  0.40153E+00  0.65880E+02    0.21250E+00  0.21250E+00 -0.42500E+00  0.00000E+00  0.00000E+00  0.00000E+00    0.23994E+02  0.17498E+02 -0.41492E+02 -0.23077E+01  0.28608E+01  0.11467E+02      982.00
  0.42515E+00  0.66134E+02    0.22500E+00  0.22500E+00 -0.45000E+00  0.00000E+00  0.00000E+00  0.00000E+00    0.24074E+02  0.17574E+02 -0.41647E+02 -0.23342E+01  0.28290E+01  0.11533E+02      982.00
  0.44876E+00  0.66377E+02    0.23750E+00  0.23750E+00 -0.47500E+00  0.00000E+00  0.00000E+00  0.00000E+00    0.24143E+02  0.17654E+02 -0.41798E+02 -0.23602E+01  0.27975E+01  0.11595E+02      982.00
  0.47238E+00  0.66608E+02    0.25000E+00  0.25000E+00 -0.50000E+00  0.00000E+00  0.00000E+00  0.00000E+00    0.24205E+02  0.17736E+02 -0.41941E+02 -0.23860E+01  0.27657E+01  0.11653E+02      982.00
  0.49599E+00  0.66794E+02    0.26250E+00  0.26250E+00 -0.52500E+00  0.00000E+00  0.00000E+00  0.00000E+00    0.24246E+02  0.17811E+02 -0.42057E+02 -0.24098E+01  0.27355E+01  0.11700E+02      982.00
  0.51960E+00  0.67003E+02    0.27500E+00  0.27500E+00 -0.55000E+00  0.00000E+00  0.00000E+00  0.00000E+00    0.24294E+02  0.17895E+02 -0.42189E+02 -0.24337E+01  0.27035E+01  0.11751E+02      982.00
  0.54322E+00  0.67200E+02    0.28750E+00  0.28750E+00 -0.57500E+00  0.00000E+00  0.00000E+00  0.00000E+00    0.24336E+02  0.17978E+02 -0.42314E+02 -0.24561E+01  0.26709E+01  0.11797E+02      982.00
  0.56683E+00  0.67384E+02    0.30000E+00  0.30000E+00 -0.60000E+00  0.00000E+00  0.00000E+00  0.00000E+00    0.24371E+02  0.18060E+02 -0.42431E+02 -0.24770E+01  0.26382E+01  0.11840E+02      982.00
  0.59044E+00  0.67557E+02    0.31250E+00  0.31250E+00 -0.62500E+00  0.00000E+00  0.00000E+00  0.00000E+00    0.24401E+02  0.18142E+02 -0.42543E+02 -0.24963E+01  0.26055E+01  0.11879E+02      982.00
  0.61406E+00  0.67715E+02    0.32500E+00  0.32500E+00 -0.65000E+00  0.00000E+00  0.00000E+00  0.00000E+00    0.24425E+02  0.18220E+02 -0.42645E+02 -0.25143E+01  0.25729E+01  0.11913E+02      982.00
  0.63767E+00  0.67867E+02    0.33750E+00  0.33750E+00 -0.67500E+00  0.00000E+00  0.00000E+00  0.00000E+00    0.24446E+02  0.18298E+02 -0.42744E+02 -0.25306E+01  0.25407E+01  0.11946E+02      982.00
  0.66129E+00  0.68020E+02    0.35000E+00  0.35000E+00 -0.70000E+00  0.00000E+00  0.00000E+00  0.00000E+00    0.24463E+02  0.18380E+02 -0.42843E+02 -0.25496E+01  0.25005E+01  0.11984E+02      982.00
  0.68491E+00  0.68141E+02    0.36250E+00  0.36250E+00 -0.72500E+00  0.00000E+00  0.00000E+00  0.00000E+00    0.24477E+02  0.18447E+02 -0.42924E+02 -0.25587E+01  0.24772E+01  0.12003E+02      982.00
  0.70853E+00  0.68272E+02    0.37500E+00  0.37500E+00 -0.75000E+00  0.00000E+00  0.00000E+00  0.00000E+00    0.24486E+02  0.18525E+02 -0.43010E+02 -0.25740E+01  0.24381E+01  0.12034E+02      982.00
  0.73216E+00  0.68386E+02    0.38750E+00  0.38750E+00 -0.77500E+00  0.00000E+00  0.00000E+00  0.00000E+00    0.24493E+02  0.18594E+02 -0.43087E+02 -0.25845E+01  0.24068E+01  0.12057E+02      982.00
  0.75578E+00  0.68492E+02    0.40000E+00  0.40000E+00 -0.80000E+00  0.00000E+00  0.00000E+00  0.00000E+00    0.24499E+02  0.18659E+02 -0.43158E+02 -0.25938E+01  0.23774E+01  0.12077E+02      982.00
  0.77941E+00  0.68591E+02    0.41250E+00  0.41250E+00 -0.82500E+00  0.00000E+00  0.00000E+00  0.00000E+00    0.24502E+02  0.18723E+02 -0.43225E+02 -0.26020E+01  0.23489E+01  0.12095E+02      982.00
  0.80305E+00  0.68683E+02    0.42500E+00  0.42500E+00 -0.85000E+00  0.00000E+00  0.00000E+00  0.00000E+00    0.24505E+02  0.18783E+02 -0.43288E+02 -0.26093E+01  0.23213E+01  0.12111E+02      982.00
  0.82668E+00  0.68769E+02    0.43750E+00  0.43750E+00 -0.87500E+00  0.00000E+00  0.00000E+00  0.00000E+00    0.24505E+02  0.18842E+02 -0.43347E+02 -0.26158E+01  0.22947E+01  0.12126E+02      982.00
  0.85032E+00  0.68849E+02    0.45000E+00  0.45000E+00 -0.90000E+00  0.00000E+00  0.00000E+00  0.00000E+00    0.24505E+02  0.18897E+02 -0.43402E+02 -0.26215E+01  0.22690E+01  0.12140E+02      982.00
  0.87396E+00  0.68905E+02    0.46250E+00  0.46250E+00 -0.92500E+00  0.00000E+00  0.00000E+00  0.00000E+00    0.24499E+02  0.18940E+02 -0.43439E+02 -0.26291E+01  0.22501E+01  0.12154E+02      982.00
  0.89760E+00  0.68977E+02    0.47500E+00  0.47500E+00 -0.95000E+00  0.00000E+00  0.00000E+00  0.00000E+00    0.24497E+02  0.18992E+02 -0.43489E+02 -0.26335E+01  0.22266E+01  0.12165E+02      982.00
  0.92124E+00  0.69044E+02    0.48750E+00  0.48750E+00 -0.97500E+00  0.00000E+00  0.00000E+00  0.00000E+00    0.24495E+02  0.19041E+02 -0.43536E+02 -0.26373E+01  0.22036E+01  0.12176E+02      982.00
  0.94489E+00  0.69107E+02    0.50000E+00  0.50000E+00 -0.10000E+01  0.00000E+00  0.00000E+00  0.00000E+00    0.24491E+02  0.19088E+02 -0.43580E+02 -0.26407E+01  0.21814E+01  0.12185E+02      982.00
