          Evm          Svm            E11          E22          E33          E23          E13          E12         SDEV11       SDEV22       SDEV33       SDEV23       SDEV13       SDEV12      TEMP
  0.00000E+00  0.56875E+02    0.00000E+00  0.00000E+00  0.00000E+00  0.00000E+00  0.00000E+00  0.00000E+00    0.16255E+02  0.16511E+02 -0.32766E+02 -0.17624E+01  0.31554E+01  0.16124E+02      982.00
  0.21604E-01  0.56836E+02    0.12500E-01  0.12500E-01 -0.25000E-01  0.00000E+00  0.00000E+00  0.00000E+00    0.16376E+02  0.16422E+02 -0.32798E+02 -0.20336E+01  0.31095E+01  0.16007E+02      982.00
  0.43243E-01  0.56927E+02    0.25000E-01  0.25000E-01 -0.50000E-01  0.00000E+00  0.00000E+00  0.00000E+00    0.16479E+02  0.16409E+02 -0.32888E+02 -0.22280E+01  0.30525E+01  0.15960E+02      982.00
  0.64908E-01  0.57102E+02    0.37500E-01  0.37500E-01 -0.75000E-01  0.00000E+00  0.00000E+00  0.00000E+00    0.16574E+02  0.16437E+02 -0.33011E+02 -0.23732E+01  0.29764E+01  0.15971E+02      982.00
  0.86587E-01  0.57358E+02    0.50000E-01  0.50000E-01 -0.10000E+00  0.00000E+00  0.00000E+00  0.00000E+00    0.16670E+02  0.16493E+02 -0.33163E+02 -0.24852E+01  0.28880E+01  0.16039E+02      982.00
  0.10827E+00  0.57685E+02    0.62500E-01  0.62500E-01 -0.12500E+00  0.00000E+00  0.00000E+00  0.00000E+00    0.16771E+02  0.16575E+02 -0.33346E+02 -0.25669E+01  0.28008E+01  0.16149E+02      982.00
  0.12995E+00  0.58063E+02    0.75000E-01  0.75000E-01 -0.15000E+00  0.00000E+00  0.00000E+00  0.00000E+00    0.16875E+02  0.16675E+02 -0.33550E+02 -0.26305E+01  0.27093E+01  0.16288E+02      982.00
  0.15161E+00  0.58473E+02    0.87500E-01  0.87500E-01 -0.17500E+00  0.00000E+00  0.00000E+00  0.00000E+00    0.16980E+02  0.16786E+02 -0.33765E+02 -0.26730E+01  0.26283E+01  0.16448E+02      982.00
  0.17327E+00  0.58906E+02    0.10000E+00  0.10000E+00 -0.20000E+00  0.00000E+00  0.00000E+00  0.00000E+00    0.17086E+02  0.16906E+02 -0.33991E+02 -0.27026E+01  0.25547E+01  0.16621E+02      982.00
  0.19491E+00  0.59350E+02    0.11250E+00  0.11250E+00 -0.22500E+00  0.00000E+00  0.00000E+00  0.00000E+00    0.17192E+02  0.17030E+02 -0.34222E+02 -0.27221E+01  0.24888E+01  0.16798E+02      982.00
  0.21653E+00  0.59780E+02    0.12500E+00  0.12500E+00 -0.25000E+00  0.00000E+00  0.00000E+00  0.00000E+00    0.17293E+02  0.17156E+02 -0.34449E+02 -0.27335E+01  0.24202E+01  0.16965E+02      982.00
  0.23814E+00  0.60214E+02    0.13750E+00  0.13750E+00 -0.27500E+00  0.00000E+00  0.00000E+00  0.00000E+00    0.17395E+02  0.17283E+02 -0.34678E+02 -0.27390E+01  0.23702E+01  0.17133E+02      982.00
  0.25974E+00  0.60633E+02    0.15000E+00  0.15000E+00 -0.30000E+00  0.00000E+00  0.00000E+00  0.00000E+00    0.17496E+02  0.17407E+02 -0.34903E+02 -0.27392E+01  0.23272E+01  0.17289E+02      982.00
  0.28132E+00  0.61025E+02    0.16250E+00  0.16250E+00 -0.32500E+00  0.00000E+00  0.00000E+00  0.00000E+00    0.17588E+02  0.17527E+02 -0.35115E+02 -0.27336E+01  0.22800E+01  0.17432E+02      982.00
  0.30290E+00  0.61402E+02    0.17500E+00  0.17500E+00 -0.35000E+00  0.00000E+00  0.00000E+00  0.00000E+00    0.17681E+02  0.17643E+02 -0.35324E+02 -0.27264E+01  0.22484E+01  0.17561E+02      982.00
  0.32448E+00  0.61759E+02    0.18750E+00  0.18750E+00 -0.37500E+00  0.00000E+00  0.00000E+00  0.00000E+00    0.17768E+02  0.17755E+02 -0.35523E+02 -0.27130E+01  0.22113E+01  0.17684E+02      982.00
  0.34605E+00  0.62085E+02    0.20000E+00  0.20000E+00 -0.40000E+00  0.00000E+00  0.00000E+00  0.00000E+00    0.17854E+02  0.17858E+02 -0.35712E+02 -0.26999E+01  0.21872E+01  0.17784E+02      982.00
  0.36762E+00  0.62387E+02    0.21250E+00  0.21250E+00 -0.42500E+00  0.00000E+00  0.00000E+00  0.00000E+00    0.17936E+02  0.17955E+02 -0.35891E+02 -0.26846E+01  0.21662E+01  0.17870E+02      982.00
  0.38919E+00  0.62665E+02    0.22500E+00  0.22500E+00 -0.45000E+00  0.00000E+00  0.00000E+00  0.00000E+00    0.18014E+02  0.18045E+02 -0.36060E+02 -0.26677E+01  0.21468E+01  0.17945E+02      982.00
  0.41077E+00  0.62938E+02    0.23750E+00  0.23750E+00 -0.47500E+00  0.00000E+00  0.00000E+00  0.00000E+00    0.18089E+02  0.18135E+02 -0.36224E+02 -0.26431E+01  0.21200E+01  0.18022E+02      982.00
  0.43235E+00  0.63170E+02    0.25000E+00  0.25000E+00 -0.50000E+00  0.00000E+00  0.00000E+00  0.00000E+00    0.18159E+02  0.18212E+02 -0.36371E+02 -0.26223E+01  0.21019E+01  0.18075E+02      982.00
  0.45394E+00  0.63383E+02    0.26250E+00  0.26250E+00 -0.52500E+00  0.00000E+00  0.00000E+00  0.00000E+00    0.18227E+02  0.18283E+02 -0.36510E+02 -0.26016E+01  0.20858E+01  0.18119E+02      982.00
  0.47554E+00  0.63579E+02    0.27500E+00  0.27500E+00 -0.55000E+00  0.00000E+00  0.00000E+00  0.00000E+00    0.18291E+02  0.18348E+02 -0.36639E+02 -0.25805E+01  0.20703E+01  0.18156E+02      982.00
  0.49715E+00  0.63759E+02    0.28750E+00  0.28750E+00 -0.57500E+00  0.00000E+00  0.00000E+00  0.00000E+00    0.18353E+02  0.18408E+02 -0.36760E+02 -0.25590E+01  0.20551E+01  0.18188E+02      982.00
  0.51877E+00  0.63924E+02    0.30000E+00  0.30000E+00 -0.60000E+00  0.00000E+00  0.00000E+00  0.00000E+00    0.18411E+02  0.18462E+02 -0.36874E+02 -0.25375E+01  0.20402E+01  0.18214E+02      982.00
  0.54041E+00  0.64076E+02    0.31250E+00  0.31250E+00 -0.62500E+00  0.00000E+00  0.00000E+00  0.00000E+00    0.18468E+02  0.18512E+02 -0.36979E+02 -0.25160E+01  0.20255E+01  0.18236E+02      982.00
  0.56205E+00  0.64199E+02    0.32500E+00  0.32500E+00 -0.65000E+00  0.00000E+00  0.00000E+00  0.00000E+00    0.18515E+02  0.18551E+02 -0.37066E+02 -0.24995E+01  0.20147E+01  0.18252E+02      982.00
  0.58370E+00  0.64330E+02    0.33750E+00  0.33750E+00 -0.67500E+00  0.00000E+00  0.00000E+00  0.00000E+00    0.18567E+02  0.18593E+02 -0.37160E+02 -0.24791E+01  0.20009E+01  0.18267E+02      982.00
  0.60536E+00  0.64450E+02    0.35000E+00  0.35000E+00 -0.70000E+00  0.00000E+00  0.00000E+00  0.00000E+00    0.18617E+02  0.18630E+02 -0.37247E+02 -0.24586E+01  0.19869E+01  0.18279E+02      982.00
  0.62703E+00  0.64561E+02    0.36250E+00  0.36250E+00 -0.72500E+00  0.00000E+00  0.00000E+00  0.00000E+00    0.18665E+02  0.18664E+02 -0.37329E+02 -0.24386E+01  0.19731E+01  0.18288E+02      982.00
  0.64871E+00  0.64663E+02    0.37500E+00  0.37500E+00 -0.75000E+00  0.00000E+00  0.00000E+00  0.00000E+00    0.18711E+02  0.18694E+02 -0.37405E+02 -0.24193E+01  0.19597E+01  0.18296E+02      982.00
  0.67041E+00  0.64758E+02    0.38750E+00  0.38750E+00 -0.77500E+00  0.00000E+00  0.00000E+00  0.00000E+00    0.18755E+02  0.18721E+02 -0.37476E+02 -0.24006E+01  0.19466E+01  0.18302E+02      982.00
  0.69211E+00  0.64845E+02    0.40000E+00  0.40000E+00 -0.80000E+00  0.00000E+00  0.00000E+00  0.00000E+00    0.18798E+02  0.18744E+02 -0.37543E+02 -0.23826E+01  0.19339E+01  0.18307E+02      982.00
  0.71382E+00  0.64926E+02    0.41250E+00  0.41250E+00 -0.82500E+00  0.00000E+00  0.00000E+00  0.00000E+00    0.18840E+02  0.18765E+02 -0.37605E+02 -0.23654E+01  0.19215E+01  0.18310E+02      982.00
  0.73554E+00  0.65002E+02    0.42500E+00  0.42500E+00 -0.85000E+00  0.00000E+00  0.00000E+00  0.00000E+00    0.18880E+02  0.18783E+02 -0.37663E+02 -0.23490E+01  0.19095E+01  0.18313E+02      982.00
  0.75727E+00  0.65072E+02    0.43750E+00  0.43750E+00 -0.87500E+00  0.00000E+00  0.00000E+00  0.00000E+00    0.18919E+02  0.18798E+02 -0.37718E+02 -0.23334E+01  0.18979E+01  0.18315E+02      982.00
  0.77900E+00  0.65137E+02    0.45000E+00  0.45000E+00 -0.90000E+00  0.00000E+00  0.00000E+00  0.00000E+00    0.18957E+02  0.18812E+02 -0.37769E+02 -0.23186E+01  0.18867E+01  0.18316E+02      982.00
  0.80075E+00  0.65198E+02    0.46250E+00  0.46250E+00 -0.92500E+00  0.00000E+00  0.00000E+00  0.00000E+00    0.18994E+02  0.18822E+02 -0.37816E+02 -0.23046E+01  0.18760E+01  0.18317E+02      982.00
  0.82250E+00  0.65254E+02    0.47500E+00  0.47500E+00 -0.95000E+00  0.00000E+00  0.00000E+00  0.00000E+00    0.19030E+02  0.18831E+02 -0.37861E+02 -0.22915E+01  0.18656E+01  0.18317E+02      982.00
  0.84426E+00  0.65307E+02    0.48750E+00  0.48750E+00 -0.97500E+00  0.00000E+00  0.00000E+00  0.00000E+00    0.19065E+02  0.18838E+02 -0.37903E+02 -0.22791E+01  0.18556E+01  0.18318E+02      982.00
  0.86602E+00  0.65313E+02    0.50000E+00  0.50000E+00 -0.10000E+01  0.00000E+00  0.00000E+00  0.00000E+00    0.19083E+02  0.18831E+02 -0.37914E+02 -0.22590E+01  0.18436E+01  0.18312E+02      982.00
