          Evm          Svm            E11          E22          E33          E23          E13          E12         SDEV11       SDEV22       SDEV33       SDEV23       SDEV13       SDEV12      TEMP
  0.00000E+00  0.54893E+02    0.00000E+00  0.00000E+00  0.00000E+00  0.00000E+00  0.00000E+00  0.00000E+00    0.20783E+02  0.13421E+02 -0.34204E+02 -0.14963E+01  0.43070E+01  0.96242E+01      982.00
  0.23367E-01  0.54835E+02    0.12500E-01  0.12500E-01 -0.25000E-01  0.00000E+00  0.00000E+00  0.00000E+00    0.20400E+02  0.13770E+02 -0.34170E+02 -0.16863E+01  0.39960E+01  0.98386E+01      982.00
  0.46734E-01  0.54886E+02    0.25000E-01  0.25000E-01 -0.50000E-01  0.00000E+00  0.00000E+00  0.00000E+00    0.19979E+02  0.14207E+02 -0.34186E+02 -0.18893E+01  0.36482E+01  0.10122E+02      982.00
  0.70091E-01  0.55038E+02    0.37500E-01  0.37500E-01 -0.75000E-01  0.00000E+00  0.00000E+00  0.00000E+00    0.19556E+02  0.14689E+02 -0.34246E+02 -0.20805E+01  0.33014E+01  0.10440E+02      982.00
  0.93424E-01  0.55262E+02    0.50000E-01  0.50000E-01 -0.10000E+00  0.00000E+00  0.00000E+00  0.00000E+00    0.19200E+02  0.15129E+02 -0.34328E+02 -0.22380E+01  0.29951E+01  0.10771E+02      982.00
  0.11672E+00  0.55569E+02    0.62500E-01  0.62500E-01 -0.12500E+00  0.00000E+00  0.00000E+00  0.00000E+00    0.18958E+02  0.15486E+02 -0.34445E+02 -0.23585E+01  0.27370E+01  0.11110E+02      982.00
  0.13996E+00  0.55941E+02    0.75000E-01  0.75000E-01 -0.15000E+00  0.00000E+00  0.00000E+00  0.00000E+00    0.18825E+02  0.15762E+02 -0.34588E+02 -0.24488E+01  0.25212E+01  0.11455E+02      982.00
  0.16315E+00  0.56375E+02    0.87500E-01  0.87500E-01 -0.17500E+00  0.00000E+00  0.00000E+00  0.00000E+00    0.18793E+02  0.15967E+02 -0.34760E+02 -0.25132E+01  0.23418E+01  0.11806E+02      982.00
  0.18627E+00  0.56848E+02    0.10000E+00  0.10000E+00 -0.20000E+00  0.00000E+00  0.00000E+00  0.00000E+00    0.18831E+02  0.16124E+02 -0.34955E+02 -0.25590E+01  0.21915E+01  0.12152E+02      982.00
  0.20933E+00  0.57337E+02    0.11250E+00  0.11250E+00 -0.22500E+00  0.00000E+00  0.00000E+00  0.00000E+00    0.18918E+02  0.16241E+02 -0.35159E+02 -0.25904E+01  0.20581E+01  0.12490E+02      982.00
  0.23232E+00  0.57804E+02    0.12500E+00  0.12500E+00 -0.25000E+00  0.00000E+00  0.00000E+00  0.00000E+00    0.19037E+02  0.16321E+02 -0.35358E+02 -0.25948E+01  0.19746E+01  0.12794E+02      982.00
  0.25526E+00  0.58280E+02    0.13750E+00  0.13750E+00 -0.27500E+00  0.00000E+00  0.00000E+00  0.00000E+00    0.19171E+02  0.16390E+02 -0.35561E+02 -0.25903E+01  0.19106E+01  0.13094E+02      982.00
  0.27814E+00  0.58744E+02    0.15000E+00  0.15000E+00 -0.30000E+00  0.00000E+00  0.00000E+00  0.00000E+00    0.19308E+02  0.16453E+02 -0.35761E+02 -0.25767E+01  0.18680E+01  0.13379E+02      982.00
  0.30097E+00  0.59190E+02    0.16250E+00  0.16250E+00 -0.32500E+00  0.00000E+00  0.00000E+00  0.00000E+00    0.19442E+02  0.16512E+02 -0.35954E+02 -0.25538E+01  0.18447E+01  0.13647E+02      982.00
  0.32375E+00  0.59613E+02    0.17500E+00  0.17500E+00 -0.35000E+00  0.00000E+00  0.00000E+00  0.00000E+00    0.19567E+02  0.16569E+02 -0.36135E+02 -0.25239E+01  0.18400E+01  0.13901E+02      982.00
  0.34648E+00  0.59996E+02    0.18750E+00  0.18750E+00 -0.37500E+00  0.00000E+00  0.00000E+00  0.00000E+00    0.19678E+02  0.16620E+02 -0.36298E+02 -0.24895E+01  0.18405E+01  0.14133E+02      982.00
  0.36917E+00  0.60375E+02    0.20000E+00  0.20000E+00 -0.40000E+00  0.00000E+00  0.00000E+00  0.00000E+00    0.19781E+02  0.16679E+02 -0.36460E+02 -0.24462E+01  0.18656E+01  0.14360E+02      982.00
  0.39182E+00  0.60759E+02    0.21250E+00  0.21250E+00 -0.42500E+00  0.00000E+00  0.00000E+00  0.00000E+00    0.19876E+02  0.16740E+02 -0.36616E+02 -0.23929E+01  0.18890E+01  0.14603E+02      982.00
  0.41441E+00  0.61091E+02    0.22500E+00  0.22500E+00 -0.45000E+00  0.00000E+00  0.00000E+00  0.00000E+00    0.19947E+02  0.16807E+02 -0.36754E+02 -0.23394E+01  0.19374E+01  0.14805E+02      982.00
  0.43698E+00  0.61403E+02    0.23750E+00  0.23750E+00 -0.47500E+00  0.00000E+00  0.00000E+00  0.00000E+00    0.20002E+02  0.16878E+02 -0.36880E+02 -0.22846E+01  0.19925E+01  0.15001E+02      982.00
  0.45950E+00  0.61697E+02    0.25000E+00  0.25000E+00 -0.50000E+00  0.00000E+00  0.00000E+00  0.00000E+00    0.20042E+02  0.16954E+02 -0.36996E+02 -0.22291E+01  0.20508E+01  0.15190E+02      982.00
  0.48199E+00  0.61977E+02    0.26250E+00  0.26250E+00 -0.52500E+00  0.00000E+00  0.00000E+00  0.00000E+00    0.20070E+02  0.17034E+02 -0.37104E+02 -0.21733E+01  0.21141E+01  0.15373E+02      982.00
  0.50444E+00  0.62242E+02    0.27500E+00  0.27500E+00 -0.55000E+00  0.00000E+00  0.00000E+00  0.00000E+00    0.20080E+02  0.17121E+02 -0.37201E+02 -0.21231E+01  0.21728E+01  0.15556E+02      982.00
  0.52685E+00  0.62486E+02    0.28750E+00  0.28750E+00 -0.57500E+00  0.00000E+00  0.00000E+00  0.00000E+00    0.20083E+02  0.17206E+02 -0.37288E+02 -0.20882E+01  0.22226E+01  0.15726E+02      982.00
  0.54923E+00  0.62715E+02    0.30000E+00  0.30000E+00 -0.60000E+00  0.00000E+00  0.00000E+00  0.00000E+00    0.20066E+02  0.17295E+02 -0.37362E+02 -0.20555E+01  0.22670E+01  0.15902E+02      982.00
  0.57157E+00  0.62944E+02    0.31250E+00  0.31250E+00 -0.62500E+00  0.00000E+00  0.00000E+00  0.00000E+00    0.20034E+02  0.17402E+02 -0.37436E+02 -0.20264E+01  0.23054E+01  0.16076E+02      982.00
  0.59387E+00  0.63160E+02    0.32500E+00  0.32500E+00 -0.65000E+00  0.00000E+00  0.00000E+00  0.00000E+00    0.19986E+02  0.17516E+02 -0.37502E+02 -0.20070E+01  0.23337E+01  0.16246E+02      982.00
  0.61614E+00  0.63352E+02    0.33750E+00  0.33750E+00 -0.67500E+00  0.00000E+00  0.00000E+00  0.00000E+00    0.19925E+02  0.17629E+02 -0.37554E+02 -0.19978E+01  0.23532E+01  0.16409E+02      982.00
  0.63837E+00  0.63544E+02    0.35000E+00  0.35000E+00 -0.70000E+00  0.00000E+00  0.00000E+00  0.00000E+00    0.19851E+02  0.17757E+02 -0.37608E+02 -0.20012E+01  0.23556E+01  0.16569E+02      982.00
  0.66056E+00  0.63721E+02    0.36250E+00  0.36250E+00 -0.72500E+00  0.00000E+00  0.00000E+00  0.00000E+00    0.19765E+02  0.17890E+02 -0.37655E+02 -0.20149E+01  0.23448E+01  0.16722E+02      982.00
  0.68272E+00  0.63890E+02    0.37500E+00  0.37500E+00 -0.75000E+00  0.00000E+00  0.00000E+00  0.00000E+00    0.19671E+02  0.18027E+02 -0.37698E+02 -0.20373E+01  0.23228E+01  0.16870E+02      982.00
  0.70485E+00  0.64071E+02    0.38750E+00  0.38750E+00 -0.77500E+00  0.00000E+00  0.00000E+00  0.00000E+00    0.19584E+02  0.18164E+02 -0.37747E+02 -0.20597E+01  0.22991E+01  0.17021E+02      982.00
  0.72694E+00  0.64218E+02    0.40000E+00  0.40000E+00 -0.80000E+00  0.00000E+00  0.00000E+00  0.00000E+00    0.19486E+02  0.18299E+02 -0.37785E+02 -0.20849E+01  0.22678E+01  0.17148E+02      982.00
  0.74900E+00  0.64355E+02    0.41250E+00  0.41250E+00 -0.82500E+00  0.00000E+00  0.00000E+00  0.00000E+00    0.19385E+02  0.18434E+02 -0.37820E+02 -0.21160E+01  0.22291E+01  0.17266E+02      982.00
  0.77104E+00  0.64472E+02    0.42500E+00  0.42500E+00 -0.85000E+00  0.00000E+00  0.00000E+00  0.00000E+00    0.19285E+02  0.18562E+02 -0.37847E+02 -0.21447E+01  0.21887E+01  0.17372E+02      982.00
  0.79305E+00  0.64591E+02    0.43750E+00  0.43750E+00 -0.87500E+00  0.00000E+00  0.00000E+00  0.00000E+00    0.19192E+02  0.18687E+02 -0.37879E+02 -0.21710E+01  0.21499E+01  0.17468E+02      982.00
  0.81505E+00  0.64707E+02    0.45000E+00  0.45000E+00 -0.90000E+00  0.00000E+00  0.00000E+00  0.00000E+00    0.19107E+02  0.18805E+02 -0.37912E+02 -0.21924E+01  0.21128E+01  0.17560E+02      982.00
  0.83702E+00  0.64808E+02    0.46250E+00  0.46250E+00 -0.92500E+00  0.00000E+00  0.00000E+00  0.00000E+00    0.19027E+02  0.18915E+02 -0.37942E+02 -0.22107E+01  0.20784E+01  0.17638E+02      982.00
  0.85897E+00  0.64909E+02    0.47500E+00  0.47500E+00 -0.95000E+00  0.00000E+00  0.00000E+00  0.00000E+00    0.18956E+02  0.19015E+02 -0.37971E+02 -0.22277E+01  0.20442E+01  0.17718E+02      982.00
  0.88091E+00  0.64952E+02    0.48750E+00  0.48750E+00 -0.97500E+00  0.00000E+00  0.00000E+00  0.00000E+00    0.18884E+02  0.19093E+02 -0.37976E+02 -0.22353E+01  0.20072E+01  0.17765E+02      982.00
  0.90283E+00  0.65001E+02    0.50000E+00  0.50000E+00 -0.10000E+01  0.00000E+00  0.00000E+00  0.00000E+00    0.18820E+02  0.19168E+02 -0.37987E+02 -0.22347E+01  0.19786E+01  0.17809E+02      982.00
