          Evm          Svm            E11          E22          E33          E23          E13          E12         SDEV11       SDEV22       SDEV33       SDEV23       SDEV13       SDEV12      TEMP
  0.00000E+00  0.61244E+02    0.00000E+00  0.00000E+00  0.00000E+00  0.00000E+00  0.00000E+00  0.00000E+00    0.16922E+02  0.21515E+02 -0.38437E+02 -0.94197E+00  0.20628E+01  0.11481E+02      982.00
  0.23535E-01  0.61466E+02    0.12500E-01  0.12500E-01 -0.25000E-01  0.00000E+00  0.00000E+00  0.00000E+00    0.16978E+02  0.21605E+02 -0.38583E+02 -0.11847E+01  0.20876E+01  0.11479E+02      982.00
  0.47074E-01  0.61680E+02    0.25000E-01  0.25000E-01 -0.50000E-01  0.00000E+00  0.00000E+00  0.00000E+00    0.16960E+02  0.21774E+02 -0.38734E+02 -0.14338E+01  0.21427E+01  0.11423E+02      982.00
  0.70623E-01  0.61803E+02    0.37500E-01  0.37500E-01 -0.75000E-01  0.00000E+00  0.00000E+00  0.00000E+00    0.16870E+02  0.21979E+02 -0.38848E+02 -0.17190E+01  0.22015E+01  0.11269E+02      982.00
  0.94195E-01  0.61900E+02    0.50000E-01  0.50000E-01 -0.10000E+00  0.00000E+00  0.00000E+00  0.00000E+00    0.16740E+02  0.22214E+02 -0.38954E+02 -0.20208E+01  0.22114E+01  0.11076E+02      982.00
  0.11779E+00  0.62022E+02    0.62500E-01  0.62500E-01 -0.12500E+00  0.00000E+00  0.00000E+00  0.00000E+00    0.16589E+02  0.22481E+02 -0.39069E+02 -0.23197E+01  0.21718E+01  0.10893E+02      982.00
  0.14142E+00  0.62185E+02    0.75000E-01  0.75000E-01 -0.15000E+00  0.00000E+00  0.00000E+00  0.00000E+00    0.16431E+02  0.22768E+02 -0.39199E+02 -0.25939E+01  0.21031E+01  0.10742E+02      982.00
  0.16505E+00  0.62389E+02    0.87500E-01  0.87500E-01 -0.17500E+00  0.00000E+00  0.00000E+00  0.00000E+00    0.16269E+02  0.23074E+02 -0.39343E+02 -0.28394E+01  0.20303E+01  0.10621E+02      982.00
  0.18870E+00  0.62631E+02    0.10000E+00  0.10000E+00 -0.20000E+00  0.00000E+00  0.00000E+00  0.00000E+00    0.16118E+02  0.23381E+02 -0.39499E+02 -0.30501E+01  0.19630E+01  0.10539E+02      982.00
  0.21235E+00  0.62901E+02    0.11250E+00  0.11250E+00 -0.22500E+00  0.00000E+00  0.00000E+00  0.00000E+00    0.15977E+02  0.23687E+02 -0.39664E+02 -0.32327E+01  0.19120E+01  0.10485E+02      982.00
  0.23600E+00  0.63202E+02    0.12500E+00  0.12500E+00 -0.25000E+00  0.00000E+00  0.00000E+00  0.00000E+00    0.15851E+02  0.23991E+02 -0.39842E+02 -0.33895E+01  0.18783E+01  0.10458E+02      982.00
  0.25964E+00  0.63523E+02    0.13750E+00  0.13750E+00 -0.27500E+00  0.00000E+00  0.00000E+00  0.00000E+00    0.15743E+02  0.24283E+02 -0.40026E+02 -0.35242E+01  0.18601E+01  0.10459E+02      982.00
  0.28327E+00  0.63857E+02    0.15000E+00  0.15000E+00 -0.30000E+00  0.00000E+00  0.00000E+00  0.00000E+00    0.15650E+02  0.24564E+02 -0.40215E+02 -0.36397E+01  0.18569E+01  0.10477E+02      982.00
  0.30688E+00  0.64189E+02    0.16250E+00  0.16250E+00 -0.32500E+00  0.00000E+00  0.00000E+00  0.00000E+00    0.15565E+02  0.24836E+02 -0.40401E+02 -0.37359E+01  0.18683E+01  0.10501E+02      982.00
  0.33049E+00  0.64531E+02    0.17500E+00  0.17500E+00 -0.35000E+00  0.00000E+00  0.00000E+00  0.00000E+00    0.15500E+02  0.25091E+02 -0.40591E+02 -0.38173E+01  0.18874E+01  0.10546E+02      982.00
  0.35407E+00  0.64868E+02    0.18750E+00  0.18750E+00 -0.37500E+00  0.00000E+00  0.00000E+00  0.00000E+00    0.15446E+02  0.25332E+02 -0.40778E+02 -0.38830E+01  0.19143E+01  0.10598E+02      982.00
  0.37765E+00  0.65183E+02    0.20000E+00  0.20000E+00 -0.40000E+00  0.00000E+00  0.00000E+00  0.00000E+00    0.15393E+02  0.25559E+02 -0.40953E+02 -0.39306E+01  0.19491E+01  0.10647E+02      982.00
  0.40121E+00  0.65500E+02    0.21250E+00  0.21250E+00 -0.42500E+00  0.00000E+00  0.00000E+00  0.00000E+00    0.15360E+02  0.25768E+02 -0.41128E+02 -0.39653E+01  0.19861E+01  0.10710E+02      982.00
  0.42476E+00  0.65801E+02    0.22500E+00  0.22500E+00 -0.45000E+00  0.00000E+00  0.00000E+00  0.00000E+00    0.15336E+02  0.25959E+02 -0.41295E+02 -0.39851E+01  0.20260E+01  0.10775E+02      982.00
  0.44829E+00  0.66076E+02    0.23750E+00  0.23750E+00 -0.47500E+00  0.00000E+00  0.00000E+00  0.00000E+00    0.15309E+02  0.26139E+02 -0.41448E+02 -0.39874E+01  0.20706E+01  0.10835E+02      982.00
  0.47181E+00  0.66341E+02    0.25000E+00  0.25000E+00 -0.50000E+00  0.00000E+00  0.00000E+00  0.00000E+00    0.15307E+02  0.26290E+02 -0.41598E+02 -0.39759E+01  0.21090E+01  0.10901E+02      982.00
  0.49533E+00  0.66588E+02    0.26250E+00  0.26250E+00 -0.52500E+00  0.00000E+00  0.00000E+00  0.00000E+00    0.15309E+02  0.26429E+02 -0.41738E+02 -0.39555E+01  0.21516E+01  0.10967E+02      982.00
  0.51883E+00  0.66802E+02    0.27500E+00  0.27500E+00 -0.55000E+00  0.00000E+00  0.00000E+00  0.00000E+00    0.15306E+02  0.26552E+02 -0.41858E+02 -0.39203E+01  0.21976E+01  0.11028E+02      982.00
  0.54233E+00  0.67023E+02    0.28750E+00  0.28750E+00 -0.57500E+00  0.00000E+00  0.00000E+00  0.00000E+00    0.15326E+02  0.26659E+02 -0.41985E+02 -0.38800E+01  0.22383E+01  0.11095E+02      982.00
  0.56582E+00  0.67227E+02    0.30000E+00  0.30000E+00 -0.60000E+00  0.00000E+00  0.00000E+00  0.00000E+00    0.15355E+02  0.26750E+02 -0.42105E+02 -0.38329E+01  0.22768E+01  0.11159E+02      982.00
  0.58931E+00  0.67413E+02    0.31250E+00  0.31250E+00 -0.62500E+00  0.00000E+00  0.00000E+00  0.00000E+00    0.15390E+02  0.26826E+02 -0.42216E+02 -0.37804E+01  0.23124E+01  0.11218E+02      982.00
  0.61279E+00  0.67589E+02    0.32500E+00  0.32500E+00 -0.65000E+00  0.00000E+00  0.00000E+00  0.00000E+00    0.15432E+02  0.26891E+02 -0.42323E+02 -0.37249E+01  0.23455E+01  0.11274E+02      982.00
  0.63627E+00  0.67747E+02    0.33750E+00  0.33750E+00 -0.67500E+00  0.00000E+00  0.00000E+00  0.00000E+00    0.15471E+02  0.26948E+02 -0.42419E+02 -0.36589E+01  0.23808E+01  0.11331E+02      982.00
  0.65975E+00  0.67905E+02    0.35000E+00  0.35000E+00 -0.70000E+00  0.00000E+00  0.00000E+00  0.00000E+00    0.15533E+02  0.26988E+02 -0.42521E+02 -0.36090E+01  0.24021E+01  0.11375E+02      982.00
  0.68323E+00  0.68040E+02    0.36250E+00  0.36250E+00 -0.72500E+00  0.00000E+00  0.00000E+00  0.00000E+00    0.15583E+02  0.27023E+02 -0.42606E+02 -0.35419E+01  0.24295E+01  0.11423E+02      982.00
  0.70672E+00  0.68177E+02    0.37500E+00  0.37500E+00 -0.75000E+00  0.00000E+00  0.00000E+00  0.00000E+00    0.15650E+02  0.27050E+02 -0.42700E+02 -0.34937E+01  0.24453E+01  0.11456E+02      982.00
  0.73020E+00  0.68293E+02    0.38750E+00  0.38750E+00 -0.77500E+00  0.00000E+00  0.00000E+00  0.00000E+00    0.15707E+02  0.27069E+02 -0.42777E+02 -0.34284E+01  0.24654E+01  0.11497E+02      982.00
  0.75369E+00  0.68412E+02    0.40000E+00  0.40000E+00 -0.80000E+00  0.00000E+00  0.00000E+00  0.00000E+00    0.15776E+02  0.27084E+02 -0.42861E+02 -0.33835E+01  0.24763E+01  0.11520E+02      982.00
  0.77719E+00  0.68517E+02    0.41250E+00  0.41250E+00 -0.82500E+00  0.00000E+00  0.00000E+00  0.00000E+00    0.15841E+02  0.27094E+02 -0.42936E+02 -0.33314E+01  0.24877E+01  0.11546E+02      982.00
  0.80069E+00  0.68615E+02    0.42500E+00  0.42500E+00 -0.85000E+00  0.00000E+00  0.00000E+00  0.00000E+00    0.15907E+02  0.27100E+02 -0.43007E+02 -0.32808E+01  0.24968E+01  0.11568E+02      982.00
  0.82419E+00  0.68705E+02    0.43750E+00  0.43750E+00 -0.87500E+00  0.00000E+00  0.00000E+00  0.00000E+00    0.15972E+02  0.27102E+02 -0.43074E+02 -0.32319E+01  0.25038E+01  0.11587E+02      982.00
  0.84770E+00  0.68790E+02    0.45000E+00  0.45000E+00 -0.90000E+00  0.00000E+00  0.00000E+00  0.00000E+00    0.16037E+02  0.27102E+02 -0.43138E+02 -0.31849E+01  0.25090E+01  0.11603E+02      982.00
  0.87122E+00  0.68869E+02    0.46250E+00  0.46250E+00 -0.92500E+00  0.00000E+00  0.00000E+00  0.00000E+00    0.16100E+02  0.27099E+02 -0.43199E+02 -0.31398E+01  0.25126E+01  0.11616E+02      982.00
  0.89474E+00  0.68942E+02    0.47500E+00  0.47500E+00 -0.95000E+00  0.00000E+00  0.00000E+00  0.00000E+00    0.16162E+02  0.27095E+02 -0.43257E+02 -0.30964E+01  0.25148E+01  0.11627E+02      982.00
  0.91827E+00  0.69010E+02    0.48750E+00  0.48750E+00 -0.97500E+00  0.00000E+00  0.00000E+00  0.00000E+00    0.16222E+02  0.27089E+02 -0.43311E+02 -0.30546E+01  0.25159E+01  0.11635E+02      982.00
  0.94180E+00  0.69074E+02    0.50000E+00  0.50000E+00 -0.10000E+01  0.00000E+00  0.00000E+00  0.00000E+00    0.16281E+02  0.27082E+02 -0.43363E+02 -0.30146E+01  0.25160E+01  0.11642E+02      982.00
