          Evm          Svm            E11          E22          E33          E23          E13          E12         SDEV11       SDEV22       SDEV33       SDEV23       SDEV13       SDEV12      TEMP
  0.00000E+00  0.60553E+02    0.00000E+00  0.00000E+00  0.00000E+00  0.00000E+00  0.00000E+00  0.00000E+00    0.21838E+02  0.16653E+02 -0.38490E+02 -0.27449E+01  0.45026E+00  0.98306E+01      982.00
  0.23837E-01  0.60817E+02    0.12500E-01  0.12500E-01 -0.25000E-01  0.00000E+00  0.00000E+00  0.00000E+00    0.22057E+02  0.16611E+02 -0.38668E+02 -0.28156E+01  0.63041E+00  0.97873E+01      982.00
  0.47679E-01  0.61101E+02    0.25000E-01  0.25000E-01 -0.50000E-01  0.00000E+00  0.00000E+00  0.00000E+00    0.22320E+02  0.16542E+02 -0.38863E+02 -0.29269E+01  0.83405E+00  0.97012E+01      982.00
  0.71531E-01  0.61280E+02    0.37500E-01  0.37500E-01 -0.75000E-01  0.00000E+00  0.00000E+00  0.00000E+00    0.22603E+02  0.16410E+02 -0.39013E+02 -0.30710E+01  0.10777E+01  0.94887E+01      982.00
  0.95405E-01  0.61387E+02    0.50000E-01  0.50000E-01 -0.10000E+00  0.00000E+00  0.00000E+00  0.00000E+00    0.22882E+02  0.16251E+02 -0.39134E+02 -0.31434E+01  0.13450E+01  0.92112E+01      982.00
  0.11931E+00  0.61486E+02    0.62500E-01  0.62500E-01 -0.12500E+00  0.00000E+00  0.00000E+00  0.00000E+00    0.23163E+02  0.16087E+02 -0.39250E+02 -0.31191E+01  0.16188E+01  0.89362E+01      982.00
  0.14325E+00  0.61614E+02    0.75000E-01  0.75000E-01 -0.15000E+00  0.00000E+00  0.00000E+00  0.00000E+00    0.23450E+02  0.15929E+02 -0.39379E+02 -0.30228E+01  0.18726E+01  0.86959E+01      982.00
  0.16722E+00  0.61783E+02    0.87500E-01  0.87500E-01 -0.17500E+00  0.00000E+00  0.00000E+00  0.00000E+00    0.23741E+02  0.15784E+02 -0.39525E+02 -0.28934E+01  0.20945E+01  0.84943E+01      982.00
  0.19121E+00  0.61988E+02    0.10000E+00  0.10000E+00 -0.20000E+00  0.00000E+00  0.00000E+00  0.00000E+00    0.24037E+02  0.15646E+02 -0.39683E+02 -0.27638E+01  0.22892E+01  0.83248E+01      982.00
  0.21521E+00  0.62218E+02    0.11250E+00  0.11250E+00 -0.22500E+00  0.00000E+00  0.00000E+00  0.00000E+00    0.24324E+02  0.15524E+02 -0.39847E+02 -0.26445E+01  0.24554E+01  0.81933E+01      982.00
  0.23923E+00  0.62491E+02    0.12500E+00  0.12500E+00 -0.25000E+00  0.00000E+00  0.00000E+00  0.00000E+00    0.24616E+02  0.15417E+02 -0.40032E+02 -0.25472E+01  0.26015E+01  0.80842E+01      982.00
  0.26325E+00  0.62788E+02    0.13750E+00  0.13750E+00 -0.27500E+00  0.00000E+00  0.00000E+00  0.00000E+00    0.24895E+02  0.15330E+02 -0.40225E+02 -0.24674E+01  0.27279E+01  0.80117E+01      982.00
  0.28728E+00  0.63094E+02    0.15000E+00  0.15000E+00 -0.30000E+00  0.00000E+00  0.00000E+00  0.00000E+00    0.25161E+02  0.15258E+02 -0.40419E+02 -0.24063E+01  0.28412E+01  0.79570E+01      982.00
  0.31130E+00  0.63424E+02    0.16250E+00  0.16250E+00 -0.32500E+00  0.00000E+00  0.00000E+00  0.00000E+00    0.25428E+02  0.15197E+02 -0.40625E+02 -0.23623E+01  0.29446E+01  0.79148E+01      982.00
  0.33532E+00  0.63760E+02    0.17500E+00  0.17500E+00 -0.35000E+00  0.00000E+00  0.00000E+00  0.00000E+00    0.25677E+02  0.15155E+02 -0.40832E+02 -0.23281E+01  0.30389E+01  0.78949E+01      982.00
  0.35933E+00  0.64083E+02    0.18750E+00  0.18750E+00 -0.37500E+00  0.00000E+00  0.00000E+00  0.00000E+00    0.25907E+02  0.15123E+02 -0.41030E+02 -0.22994E+01  0.31234E+01  0.78869E+01      982.00
  0.38334E+00  0.64420E+02    0.20000E+00  0.20000E+00 -0.40000E+00  0.00000E+00  0.00000E+00  0.00000E+00    0.26135E+02  0.15099E+02 -0.41234E+02 -0.22779E+01  0.32047E+01  0.78880E+01      982.00
  0.40735E+00  0.64735E+02    0.21250E+00  0.21250E+00 -0.42500E+00  0.00000E+00  0.00000E+00  0.00000E+00    0.26353E+02  0.15070E+02 -0.41424E+02 -0.22627E+01  0.32822E+01  0.78890E+01      982.00
  0.43134E+00  0.65051E+02    0.22500E+00  0.22500E+00 -0.45000E+00  0.00000E+00  0.00000E+00  0.00000E+00    0.26555E+02  0.15057E+02 -0.41612E+02 -0.22443E+01  0.33553E+01  0.79073E+01      982.00
  0.45533E+00  0.65355E+02    0.23750E+00  0.23750E+00 -0.47500E+00  0.00000E+00  0.00000E+00  0.00000E+00    0.26755E+02  0.15036E+02 -0.41791E+02 -0.22286E+01  0.34267E+01  0.79261E+01      982.00
  0.47931E+00  0.65647E+02    0.25000E+00  0.25000E+00 -0.50000E+00  0.00000E+00  0.00000E+00  0.00000E+00    0.26938E+02  0.15024E+02 -0.41962E+02 -0.22090E+01  0.34910E+01  0.79589E+01      982.00
  0.50328E+00  0.65924E+02    0.26250E+00  0.26250E+00 -0.52500E+00  0.00000E+00  0.00000E+00  0.00000E+00    0.27109E+02  0.15013E+02 -0.42122E+02 -0.21879E+01  0.35510E+01  0.79987E+01      982.00
  0.52724E+00  0.66188E+02    0.27500E+00  0.27500E+00 -0.55000E+00  0.00000E+00  0.00000E+00  0.00000E+00    0.27281E+02  0.14989E+02 -0.42270E+02 -0.21654E+01  0.36103E+01  0.80447E+01      982.00
  0.55119E+00  0.66393E+02    0.28750E+00  0.28750E+00 -0.57500E+00  0.00000E+00  0.00000E+00  0.00000E+00    0.27405E+02  0.14981E+02 -0.42385E+02 -0.21419E+01  0.36464E+01  0.80918E+01      982.00
  0.57513E+00  0.66646E+02    0.30000E+00  0.30000E+00 -0.60000E+00  0.00000E+00  0.00000E+00  0.00000E+00    0.27576E+02  0.14944E+02 -0.42520E+02 -0.21203E+01  0.36995E+01  0.81579E+01      982.00
  0.59906E+00  0.66848E+02    0.31250E+00  0.31250E+00 -0.62500E+00  0.00000E+00  0.00000E+00  0.00000E+00    0.27707E+02  0.14918E+02 -0.42625E+02 -0.20990E+01  0.37263E+01  0.82279E+01      982.00
  0.62297E+00  0.67038E+02    0.32500E+00  0.32500E+00 -0.65000E+00  0.00000E+00  0.00000E+00  0.00000E+00    0.27832E+02  0.14889E+02 -0.42721E+02 -0.20820E+01  0.37425E+01  0.83062E+01      982.00
  0.64686E+00  0.67204E+02    0.33750E+00  0.33750E+00 -0.67500E+00  0.00000E+00  0.00000E+00  0.00000E+00    0.27944E+02  0.14856E+02 -0.42800E+02 -0.20697E+01  0.37453E+01  0.83939E+01      982.00
  0.67075E+00  0.67340E+02    0.35000E+00  0.35000E+00 -0.70000E+00  0.00000E+00  0.00000E+00  0.00000E+00    0.28030E+02  0.14834E+02 -0.42864E+02 -0.20660E+01  0.37389E+01  0.84737E+01      982.00
  0.69462E+00  0.67485E+02    0.36250E+00  0.36250E+00 -0.72500E+00  0.00000E+00  0.00000E+00  0.00000E+00    0.28130E+02  0.14798E+02 -0.42927E+02 -0.20684E+01  0.37152E+01  0.85742E+01      982.00
  0.71847E+00  0.67609E+02    0.37500E+00  0.37500E+00 -0.75000E+00  0.00000E+00  0.00000E+00  0.00000E+00    0.28209E+02  0.14767E+02 -0.42976E+02 -0.20777E+01  0.36867E+01  0.86816E+01      982.00
  0.74231E+00  0.67733E+02    0.38750E+00  0.38750E+00 -0.77500E+00  0.00000E+00  0.00000E+00  0.00000E+00    0.28288E+02  0.14737E+02 -0.43025E+02 -0.20969E+01  0.36349E+01  0.87953E+01      982.00
  0.76613E+00  0.67839E+02    0.40000E+00  0.40000E+00 -0.80000E+00  0.00000E+00  0.00000E+00  0.00000E+00    0.28353E+02  0.14710E+02 -0.43063E+02 -0.21234E+01  0.35659E+01  0.89166E+01      982.00
  0.78993E+00  0.67951E+02    0.41250E+00  0.41250E+00 -0.82500E+00  0.00000E+00  0.00000E+00  0.00000E+00    0.28406E+02  0.14698E+02 -0.43104E+02 -0.21563E+01  0.34980E+01  0.90456E+01      982.00
  0.81372E+00  0.68043E+02    0.42500E+00  0.42500E+00 -0.85000E+00  0.00000E+00  0.00000E+00  0.00000E+00    0.28445E+02  0.14688E+02 -0.43133E+02 -0.21958E+01  0.34075E+01  0.91736E+01      982.00
  0.83749E+00  0.68133E+02    0.43750E+00  0.43750E+00 -0.87500E+00  0.00000E+00  0.00000E+00  0.00000E+00    0.28473E+02  0.14691E+02 -0.43164E+02 -0.22393E+01  0.33073E+01  0.93049E+01      982.00
  0.86125E+00  0.68227E+02    0.45000E+00  0.45000E+00 -0.90000E+00  0.00000E+00  0.00000E+00  0.00000E+00    0.28491E+02  0.14706E+02 -0.43197E+02 -0.22856E+01  0.32101E+01  0.94418E+01      982.00
  0.88499E+00  0.68326E+02    0.46250E+00  0.46250E+00 -0.92500E+00  0.00000E+00  0.00000E+00  0.00000E+00    0.28498E+02  0.14738E+02 -0.43236E+02 -0.23311E+01  0.31144E+01  0.95741E+01      982.00
  0.90872E+00  0.68408E+02    0.47500E+00  0.47500E+00 -0.95000E+00  0.00000E+00  0.00000E+00  0.00000E+00    0.28493E+02  0.14773E+02 -0.43267E+02 -0.23773E+01  0.30093E+01  0.97002E+01      982.00
  0.93244E+00  0.68491E+02    0.48750E+00  0.48750E+00 -0.97500E+00  0.00000E+00  0.00000E+00  0.00000E+00    0.28482E+02  0.14819E+02 -0.43301E+02 -0.24215E+01  0.29070E+01  0.98218E+01      982.00
  0.95615E+00  0.68531E+02    0.50000E+00  0.50000E+00 -0.10000E+01  0.00000E+00  0.00000E+00  0.00000E+00    0.28443E+02  0.14869E+02 -0.43312E+02 -0.24567E+01  0.27972E+01  0.99306E+01      982.00
