          Evm          Svm            E11          E22          E33          E23          E13          E12         SDEV11       SDEV22       SDEV33       SDEV23       SDEV13       SDEV12      TEMP
  0.00000E+00  0.50190E+02    0.00000E+00  0.00000E+00  0.00000E+00  0.00000E+00  0.00000E+00  0.00000E+00    0.11175E+02  0.19898E+02 -0.31072E+02 -0.57924E+01 -0.47562E+01 -0.63532E+01      982.00
  0.23216E-01  0.50826E+02    0.12500E-01  0.12500E-01 -0.25000E-01  0.00000E+00  0.00000E+00  0.00000E+00    0.11373E+02  0.19944E+02 -0.31317E+02 -0.60160E+01 -0.49637E+01 -0.68066E+01      982.00
  0.46322E-01  0.51428E+02    0.25000E-01  0.25000E-01 -0.50000E-01  0.00000E+00  0.00000E+00  0.00000E+00    0.11557E+02  0.20025E+02 -0.31582E+02 -0.61647E+01 -0.51140E+01 -0.71756E+01      982.00
  0.69351E-01  0.51992E+02    0.37500E-01  0.37500E-01 -0.75000E-01  0.00000E+00  0.00000E+00  0.00000E+00    0.11736E+02  0.20115E+02 -0.31852E+02 -0.62631E+01 -0.52265E+01 -0.74879E+01      982.00
  0.92324E-01  0.52538E+02    0.50000E-01  0.50000E-01 -0.10000E+00  0.00000E+00  0.00000E+00  0.00000E+00    0.11917E+02  0.20215E+02 -0.32132E+02 -0.63272E+01 -0.53110E+01 -0.77628E+01      982.00
  0.11526E+00  0.53055E+02    0.62500E-01  0.62500E-01 -0.12500E+00  0.00000E+00  0.00000E+00  0.00000E+00    0.12090E+02  0.20326E+02 -0.32416E+02 -0.63606E+01 -0.53650E+01 -0.79983E+01      982.00
  0.13817E+00  0.53563E+02    0.75000E-01  0.75000E-01 -0.15000E+00  0.00000E+00  0.00000E+00  0.00000E+00    0.12258E+02  0.20450E+02 -0.32708E+02 -0.63762E+01 -0.53995E+01 -0.82090E+01      982.00
  0.16107E+00  0.54061E+02    0.87500E-01  0.87500E-01 -0.17500E+00  0.00000E+00  0.00000E+00  0.00000E+00    0.12413E+02  0.20590E+02 -0.33003E+02 -0.63744E+01 -0.54131E+01 -0.84049E+01      982.00
  0.18396E+00  0.54571E+02    0.10000E+00  0.10000E+00 -0.20000E+00  0.00000E+00  0.00000E+00  0.00000E+00    0.12569E+02  0.20743E+02 -0.33312E+02 -0.63610E+01 -0.54152E+01 -0.85969E+01      982.00
  0.20685E+00  0.55094E+02    0.11250E+00  0.11250E+00 -0.22500E+00  0.00000E+00  0.00000E+00  0.00000E+00    0.12727E+02  0.20907E+02 -0.33634E+02 -0.63366E+01 -0.54077E+01 -0.87865E+01      982.00
  0.22975E+00  0.55583E+02    0.12500E+00  0.12500E+00 -0.25000E+00  0.00000E+00  0.00000E+00  0.00000E+00    0.12888E+02  0.21061E+02 -0.33949E+02 -0.62952E+01 -0.53883E+01 -0.89456E+01      982.00
  0.25265E+00  0.56090E+02    0.13750E+00  0.13750E+00 -0.27500E+00  0.00000E+00  0.00000E+00  0.00000E+00    0.13058E+02  0.21220E+02 -0.34279E+02 -0.62529E+01 -0.53672E+01 -0.91029E+01      982.00
  0.27557E+00  0.56597E+02    0.15000E+00  0.15000E+00 -0.30000E+00  0.00000E+00  0.00000E+00  0.00000E+00    0.13236E+02  0.21374E+02 -0.34609E+02 -0.62110E+01 -0.53447E+01 -0.92553E+01      982.00
  0.29850E+00  0.57147E+02    0.16250E+00  0.16250E+00 -0.32500E+00  0.00000E+00  0.00000E+00  0.00000E+00    0.13437E+02  0.21529E+02 -0.34966E+02 -0.61737E+01 -0.53304E+01 -0.94197E+01      982.00
  0.32145E+00  0.57660E+02    0.17500E+00  0.17500E+00 -0.35000E+00  0.00000E+00  0.00000E+00  0.00000E+00    0.13645E+02  0.21663E+02 -0.35309E+02 -0.61312E+01 -0.53086E+01 -0.95587E+01      982.00
  0.34441E+00  0.58133E+02    0.18750E+00  0.18750E+00 -0.37500E+00  0.00000E+00  0.00000E+00  0.00000E+00    0.13851E+02  0.21781E+02 -0.35632E+02 -0.60878E+01 -0.52783E+01 -0.96757E+01      982.00
  0.36740E+00  0.58638E+02    0.20000E+00  0.20000E+00 -0.40000E+00  0.00000E+00  0.00000E+00  0.00000E+00    0.14081E+02  0.21892E+02 -0.35973E+02 -0.60527E+01 -0.52567E+01 -0.98021E+01      982.00
  0.39040E+00  0.59120E+02    0.21250E+00  0.21250E+00 -0.42500E+00  0.00000E+00  0.00000E+00  0.00000E+00    0.14308E+02  0.21994E+02 -0.36301E+02 -0.60245E+01 -0.52308E+01 -0.99150E+01      982.00
  0.41343E+00  0.59615E+02    0.22500E+00  0.22500E+00 -0.45000E+00  0.00000E+00  0.00000E+00  0.00000E+00    0.14561E+02  0.22079E+02 -0.36640E+02 -0.59980E+01 -0.52090E+01 -0.10026E+02      982.00
  0.43647E+00  0.60088E+02    0.23750E+00  0.23750E+00 -0.47500E+00  0.00000E+00  0.00000E+00  0.00000E+00    0.14812E+02  0.22156E+02 -0.36968E+02 -0.59749E+01 -0.51812E+01 -0.10127E+02      982.00
  0.45955E+00  0.60563E+02    0.25000E+00  0.25000E+00 -0.50000E+00  0.00000E+00  0.00000E+00  0.00000E+00    0.15085E+02  0.22215E+02 -0.37299E+02 -0.59566E+01 -0.51569E+01 -0.10219E+02      982.00
  0.48264E+00  0.61022E+02    0.26250E+00  0.26250E+00 -0.52500E+00  0.00000E+00  0.00000E+00  0.00000E+00    0.15367E+02  0.22256E+02 -0.37623E+02 -0.59404E+01 -0.51314E+01 -0.10301E+02      982.00
  0.50576E+00  0.61466E+02    0.27500E+00  0.27500E+00 -0.55000E+00  0.00000E+00  0.00000E+00  0.00000E+00    0.15655E+02  0.22283E+02 -0.37939E+02 -0.59291E+01 -0.51038E+01 -0.10375E+02      982.00
  0.52891E+00  0.61894E+02    0.28750E+00  0.28750E+00 -0.57500E+00  0.00000E+00  0.00000E+00  0.00000E+00    0.15951E+02  0.22298E+02 -0.38249E+02 -0.59181E+01 -0.50732E+01 -0.10434E+02      982.00
  0.55208E+00  0.62304E+02    0.30000E+00  0.30000E+00 -0.60000E+00  0.00000E+00  0.00000E+00  0.00000E+00    0.16249E+02  0.22298E+02 -0.38548E+02 -0.59113E+01 -0.50407E+01 -0.10487E+02      982.00
  0.57528E+00  0.62693E+02    0.31250E+00  0.31250E+00 -0.62500E+00  0.00000E+00  0.00000E+00  0.00000E+00    0.16550E+02  0.22287E+02 -0.38837E+02 -0.59037E+01 -0.50055E+01 -0.10525E+02      982.00
  0.59851E+00  0.63064E+02    0.32500E+00  0.32500E+00 -0.65000E+00  0.00000E+00  0.00000E+00  0.00000E+00    0.16871E+02  0.22247E+02 -0.39118E+02 -0.58991E+01 -0.49701E+01 -0.10551E+02      982.00
  0.62177E+00  0.63417E+02    0.33750E+00  0.33750E+00 -0.67500E+00  0.00000E+00  0.00000E+00  0.00000E+00    0.17171E+02  0.22213E+02 -0.39385E+02 -0.58979E+01 -0.49306E+01 -0.10571E+02      982.00
  0.64506E+00  0.63750E+02    0.35000E+00  0.35000E+00 -0.70000E+00  0.00000E+00  0.00000E+00  0.00000E+00    0.17471E+02  0.22170E+02 -0.39641E+02 -0.58953E+01 -0.48874E+01 -0.10581E+02      982.00
  0.66838E+00  0.64060E+02    0.36250E+00  0.36250E+00 -0.72500E+00  0.00000E+00  0.00000E+00  0.00000E+00    0.17752E+02  0.22127E+02 -0.39879E+02 -0.58958E+01 -0.48462E+01 -0.10588E+02      982.00
  0.69173E+00  0.64357E+02    0.37500E+00  0.37500E+00 -0.75000E+00  0.00000E+00  0.00000E+00  0.00000E+00    0.18046E+02  0.22067E+02 -0.40113E+02 -0.58944E+01 -0.47999E+01 -0.10581E+02      982.00
  0.71510E+00  0.64640E+02    0.38750E+00  0.38750E+00 -0.77500E+00  0.00000E+00  0.00000E+00  0.00000E+00    0.18365E+02  0.21979E+02 -0.40344E+02 -0.58973E+01 -0.47498E+01 -0.10557E+02      982.00
  0.73851E+00  0.64909E+02    0.40000E+00  0.40000E+00 -0.80000E+00  0.00000E+00  0.00000E+00  0.00000E+00    0.18653E+02  0.21908E+02 -0.40560E+02 -0.58972E+01 -0.47001E+01 -0.10535E+02      982.00
  0.76194E+00  0.65160E+02    0.41250E+00  0.41250E+00 -0.82500E+00  0.00000E+00  0.00000E+00  0.00000E+00    0.18934E+02  0.21832E+02 -0.40766E+02 -0.58977E+01 -0.46491E+01 -0.10507E+02      982.00
  0.78540E+00  0.65397E+02    0.42500E+00  0.42500E+00 -0.85000E+00  0.00000E+00  0.00000E+00  0.00000E+00    0.19210E+02  0.21752E+02 -0.40962E+02 -0.58972E+01 -0.45968E+01 -0.10473E+02      982.00
  0.80889E+00  0.65618E+02    0.43750E+00  0.43750E+00 -0.87500E+00  0.00000E+00  0.00000E+00  0.00000E+00    0.19480E+02  0.21666E+02 -0.41147E+02 -0.58974E+01 -0.45441E+01 -0.10431E+02      982.00
  0.83240E+00  0.65817E+02    0.45000E+00  0.45000E+00 -0.90000E+00  0.00000E+00  0.00000E+00  0.00000E+00    0.19742E+02  0.21575E+02 -0.41317E+02 -0.58983E+01 -0.44905E+01 -0.10386E+02      982.00
  0.85594E+00  0.66015E+02    0.46250E+00  0.46250E+00 -0.92500E+00  0.00000E+00  0.00000E+00  0.00000E+00    0.20002E+02  0.21485E+02 -0.41486E+02 -0.58975E+01 -0.44365E+01 -0.10336E+02      982.00
  0.87951E+00  0.66192E+02    0.47500E+00  0.47500E+00 -0.95000E+00  0.00000E+00  0.00000E+00  0.00000E+00    0.20253E+02  0.21388E+02 -0.41640E+02 -0.58984E+01 -0.43828E+01 -0.10280E+02      982.00
  0.90310E+00  0.66365E+02    0.48750E+00  0.48750E+00 -0.97500E+00  0.00000E+00  0.00000E+00  0.00000E+00    0.20501E+02  0.21291E+02 -0.41792E+02 -0.58986E+01 -0.43286E+01 -0.10221E+02      982.00
  0.92672E+00  0.66469E+02    0.50000E+00  0.50000E+00 -0.10000E+01  0.00000E+00  0.00000E+00  0.00000E+00    0.20695E+02  0.21208E+02 -0.41903E+02 -0.58588E+01 -0.42683E+01 -0.10159E+02      982.00
