          Evm          Svm            E11          E22          E33          E23          E13          E12         SDEV11       SDEV22       SDEV33       SDEV23       SDEV13       SDEV12      TEMP
  0.00000E+00  0.57079E+02    0.00000E+00  0.00000E+00  0.00000E+00  0.00000E+00  0.00000E+00  0.00000E+00    0.16454E+02  0.17891E+02 -0.34345E+02 -0.36949E+01  0.22151E+01  0.13500E+02      982.00
  0.22564E-01  0.57130E+02    0.12500E-01  0.12500E-01 -0.25000E-01  0.00000E+00  0.00000E+00  0.00000E+00    0.16647E+02  0.17704E+02 -0.34351E+02 -0.34911E+01  0.22866E+01  0.13611E+02      982.00
  0.45112E-01  0.57280E+02    0.25000E-01  0.25000E-01 -0.50000E-01  0.00000E+00  0.00000E+00  0.00000E+00    0.16796E+02  0.17599E+02 -0.34395E+02 -0.33324E+01  0.23094E+01  0.13776E+02      982.00
  0.67630E-01  0.57511E+02    0.37500E-01  0.37500E-01 -0.75000E-01  0.00000E+00  0.00000E+00  0.00000E+00    0.16926E+02  0.17548E+02 -0.34474E+02 -0.31932E+01  0.23113E+01  0.13984E+02      982.00
  0.90108E-01  0.57809E+02    0.50000E-01  0.50000E-01 -0.10000E+00  0.00000E+00  0.00000E+00  0.00000E+00    0.17041E+02  0.17541E+02 -0.34582E+02 -0.30686E+01  0.22970E+01  0.14223E+02      982.00
  0.11254E+00  0.58169E+02    0.62500E-01  0.62500E-01 -0.12500E+00  0.00000E+00  0.00000E+00  0.00000E+00    0.17150E+02  0.17569E+02 -0.34718E+02 -0.29528E+01  0.22694E+01  0.14489E+02      982.00
  0.13492E+00  0.58566E+02    0.75000E-01  0.75000E-01 -0.15000E+00  0.00000E+00  0.00000E+00  0.00000E+00    0.17250E+02  0.17624E+02 -0.34874E+02 -0.28463E+01  0.22303E+01  0.14767E+02      982.00
  0.15725E+00  0.58971E+02    0.87500E-01  0.87500E-01 -0.17500E+00  0.00000E+00  0.00000E+00  0.00000E+00    0.17339E+02  0.17696E+02 -0.35035E+02 -0.27590E+01  0.21853E+01  0.15040E+02      982.00
  0.17953E+00  0.59403E+02    0.10000E+00  0.10000E+00 -0.20000E+00  0.00000E+00  0.00000E+00  0.00000E+00    0.17429E+02  0.17781E+02 -0.35211E+02 -0.26697E+01  0.21350E+01  0.15319E+02      982.00
  0.20176E+00  0.59850E+02    0.11250E+00  0.11250E+00 -0.22500E+00  0.00000E+00  0.00000E+00  0.00000E+00    0.17519E+02  0.17875E+02 -0.35394E+02 -0.25850E+01  0.20805E+01  0.15602E+02      982.00
  0.22394E+00  0.60286E+02    0.12500E+00  0.12500E+00 -0.25000E+00  0.00000E+00  0.00000E+00  0.00000E+00    0.17608E+02  0.17971E+02 -0.35579E+02 -0.25229E+01  0.20348E+01  0.15860E+02      982.00
  0.24607E+00  0.60707E+02    0.13750E+00  0.13750E+00 -0.27500E+00  0.00000E+00  0.00000E+00  0.00000E+00    0.17696E+02  0.18065E+02 -0.35761E+02 -0.24689E+01  0.19922E+01  0.16099E+02      982.00
  0.26816E+00  0.61109E+02    0.15000E+00  0.15000E+00 -0.30000E+00  0.00000E+00  0.00000E+00  0.00000E+00    0.17784E+02  0.18156E+02 -0.35940E+02 -0.24220E+01  0.19536E+01  0.16319E+02      982.00
  0.29021E+00  0.61506E+02    0.16250E+00  0.16250E+00 -0.32500E+00  0.00000E+00  0.00000E+00  0.00000E+00    0.17872E+02  0.18242E+02 -0.36114E+02 -0.23687E+01  0.19087E+01  0.16539E+02      982.00
  0.31223E+00  0.61857E+02    0.17500E+00  0.17500E+00 -0.35000E+00  0.00000E+00  0.00000E+00  0.00000E+00    0.17956E+02  0.18320E+02 -0.36277E+02 -0.23350E+01  0.18785E+01  0.16716E+02      982.00
  0.33422E+00  0.62182E+02    0.18750E+00  0.18750E+00 -0.37500E+00  0.00000E+00  0.00000E+00  0.00000E+00    0.18039E+02  0.18391E+02 -0.36430E+02 -0.23065E+01  0.18522E+01  0.16874E+02      982.00
  0.35619E+00  0.62482E+02    0.20000E+00  0.20000E+00 -0.40000E+00  0.00000E+00  0.00000E+00  0.00000E+00    0.18120E+02  0.18454E+02 -0.36574E+02 -0.22820E+01  0.18291E+01  0.17014E+02      982.00
  0.37814E+00  0.62757E+02    0.21250E+00  0.21250E+00 -0.42500E+00  0.00000E+00  0.00000E+00  0.00000E+00    0.18198E+02  0.18511E+02 -0.36709E+02 -0.22610E+01  0.18090E+01  0.17139E+02      982.00
  0.40008E+00  0.63005E+02    0.22500E+00  0.22500E+00 -0.45000E+00  0.00000E+00  0.00000E+00  0.00000E+00    0.18271E+02  0.18556E+02 -0.36827E+02 -0.22363E+01  0.17852E+01  0.17257E+02      982.00
  0.42200E+00  0.63239E+02    0.23750E+00  0.23750E+00 -0.47500E+00  0.00000E+00  0.00000E+00  0.00000E+00    0.18346E+02  0.18605E+02 -0.36950E+02 -0.22265E+01  0.17752E+01  0.17348E+02      982.00
  0.44391E+00  0.63443E+02    0.25000E+00  0.25000E+00 -0.50000E+00  0.00000E+00  0.00000E+00  0.00000E+00    0.18414E+02  0.18637E+02 -0.37050E+02 -0.22079E+01  0.17568E+01  0.17440E+02      982.00
  0.46581E+00  0.63636E+02    0.26250E+00  0.26250E+00 -0.52500E+00  0.00000E+00  0.00000E+00  0.00000E+00    0.18482E+02  0.18669E+02 -0.37152E+02 -0.21965E+01  0.17452E+01  0.17515E+02      982.00
  0.48770E+00  0.63812E+02    0.27500E+00  0.27500E+00 -0.55000E+00  0.00000E+00  0.00000E+00  0.00000E+00    0.18548E+02  0.18697E+02 -0.37245E+02 -0.21866E+01  0.17351E+01  0.17582E+02      982.00
  0.50959E+00  0.63973E+02    0.28750E+00  0.28750E+00 -0.57500E+00  0.00000E+00  0.00000E+00  0.00000E+00    0.18611E+02  0.18721E+02 -0.37332E+02 -0.21778E+01  0.17261E+01  0.17642E+02      982.00
  0.53147E+00  0.64121E+02    0.30000E+00  0.30000E+00 -0.60000E+00  0.00000E+00  0.00000E+00  0.00000E+00    0.18671E+02  0.18741E+02 -0.37412E+02 -0.21701E+01  0.17182E+01  0.17695E+02      982.00
  0.55335E+00  0.64257E+02    0.31250E+00  0.31250E+00 -0.62500E+00  0.00000E+00  0.00000E+00  0.00000E+00    0.18730E+02  0.18757E+02 -0.37487E+02 -0.21633E+01  0.17111E+01  0.17742E+02      982.00
  0.57523E+00  0.64382E+02    0.32500E+00  0.32500E+00 -0.65000E+00  0.00000E+00  0.00000E+00  0.00000E+00    0.18786E+02  0.18770E+02 -0.37556E+02 -0.21573E+01  0.17048E+01  0.17785E+02      982.00
  0.59711E+00  0.64524E+02    0.33750E+00  0.33750E+00 -0.67500E+00  0.00000E+00  0.00000E+00  0.00000E+00    0.18857E+02  0.18776E+02 -0.37633E+02 -0.21465E+01  0.16938E+01  0.17837E+02      982.00
  0.61898E+00  0.64627E+02    0.35000E+00  0.35000E+00 -0.70000E+00  0.00000E+00  0.00000E+00  0.00000E+00    0.18909E+02  0.18781E+02 -0.37691E+02 -0.21408E+01  0.16882E+01  0.17870E+02      982.00
  0.64085E+00  0.64722E+02    0.36250E+00  0.36250E+00 -0.72500E+00  0.00000E+00  0.00000E+00  0.00000E+00    0.18959E+02  0.18785E+02 -0.37744E+02 -0.21369E+01  0.16841E+01  0.17900E+02      982.00
  0.66272E+00  0.64783E+02    0.37500E+00  0.37500E+00 -0.75000E+00  0.00000E+00  0.00000E+00  0.00000E+00    0.18995E+02  0.18783E+02 -0.37779E+02 -0.21370E+01  0.16836E+01  0.17919E+02      982.00
  0.68458E+00  0.64869E+02    0.38750E+00  0.38750E+00 -0.77500E+00  0.00000E+00  0.00000E+00  0.00000E+00    0.19042E+02  0.18786E+02 -0.37829E+02 -0.21347E+01  0.16809E+01  0.17945E+02      982.00
  0.70645E+00  0.64946E+02    0.40000E+00  0.40000E+00 -0.80000E+00  0.00000E+00  0.00000E+00  0.00000E+00    0.19087E+02  0.18786E+02 -0.37873E+02 -0.21321E+01  0.16777E+01  0.17967E+02      982.00
  0.72832E+00  0.65017E+02    0.41250E+00  0.41250E+00 -0.82500E+00  0.00000E+00  0.00000E+00  0.00000E+00    0.19130E+02  0.18784E+02 -0.37914E+02 -0.21298E+01  0.16748E+01  0.17989E+02      982.00
  0.75019E+00  0.65084E+02    0.42500E+00  0.42500E+00 -0.85000E+00  0.00000E+00  0.00000E+00  0.00000E+00    0.19172E+02  0.18781E+02 -0.37953E+02 -0.21278E+01  0.16722E+01  0.18008E+02      982.00
  0.77206E+00  0.65146E+02    0.43750E+00  0.43750E+00 -0.87500E+00  0.00000E+00  0.00000E+00  0.00000E+00    0.19213E+02  0.18777E+02 -0.37990E+02 -0.21262E+01  0.16699E+01  0.18026E+02      982.00
  0.79392E+00  0.65205E+02    0.45000E+00  0.45000E+00 -0.90000E+00  0.00000E+00  0.00000E+00  0.00000E+00    0.19252E+02  0.18771E+02 -0.38023E+02 -0.21248E+01  0.16678E+01  0.18042E+02      982.00
  0.81579E+00  0.65259E+02    0.46250E+00  0.46250E+00 -0.92500E+00  0.00000E+00  0.00000E+00  0.00000E+00    0.19291E+02  0.18765E+02 -0.38055E+02 -0.21238E+01  0.16660E+01  0.18057E+02      982.00
  0.83766E+00  0.65310E+02    0.47500E+00  0.47500E+00 -0.95000E+00  0.00000E+00  0.00000E+00  0.00000E+00    0.19328E+02  0.18757E+02 -0.38085E+02 -0.21231E+01  0.16643E+01  0.18072E+02      982.00
  0.85953E+00  0.65358E+02    0.48750E+00  0.48750E+00 -0.97500E+00  0.00000E+00  0.00000E+00  0.00000E+00    0.19364E+02  0.18749E+02 -0.38113E+02 -0.21226E+01  0.16628E+01  0.18085E+02      982.00
  0.88140E+00  0.65365E+02    0.50000E+00  0.50000E+00 -0.10000E+01  0.00000E+00  0.00000E+00  0.00000E+00    0.19353E+02  0.18763E+02 -0.38116E+02 -0.21228E+01  0.16655E+01  0.18089E+02      982.00
