          Evm          Svm            E11          E22          E33          E23          E13          E12         SDEV11       SDEV22       SDEV33       SDEV23       SDEV13       SDEV12      TEMP
  0.00000E+00  0.57638E+02    0.00000E+00  0.00000E+00  0.00000E+00  0.00000E+00  0.00000E+00  0.00000E+00    0.18160E+02  0.17058E+02 -0.35218E+02 -0.21932E+01  0.27539E+01  0.12824E+02      982.00
  0.22913E-01  0.57703E+02    0.12500E-01  0.12500E-01 -0.25000E-01  0.00000E+00  0.00000E+00  0.00000E+00    0.18018E+02  0.17175E+02 -0.35193E+02 -0.22933E+01  0.26835E+01  0.12974E+02      982.00
  0.45784E-01  0.57847E+02    0.25000E-01  0.25000E-01 -0.50000E-01  0.00000E+00  0.00000E+00  0.00000E+00    0.17952E+02  0.17250E+02 -0.35203E+02 -0.23516E+01  0.26420E+01  0.13167E+02      982.00
  0.68605E-01  0.58055E+02    0.37500E-01  0.37500E-01 -0.75000E-01  0.00000E+00  0.00000E+00  0.00000E+00    0.17915E+02  0.17326E+02 -0.35241E+02 -0.23966E+01  0.25974E+01  0.13395E+02      982.00
  0.91369E-01  0.58326E+02    0.50000E-01  0.50000E-01 -0.10000E+00  0.00000E+00  0.00000E+00  0.00000E+00    0.17909E+02  0.17401E+02 -0.35310E+02 -0.24235E+01  0.25530E+01  0.13653E+02      982.00
  0.11407E+00  0.58646E+02    0.62500E-01  0.62500E-01 -0.12500E+00  0.00000E+00  0.00000E+00  0.00000E+00    0.17919E+02  0.17485E+02 -0.35404E+02 -0.24397E+01  0.24988E+01  0.13933E+02      982.00
  0.13671E+00  0.58998E+02    0.75000E-01  0.75000E-01 -0.15000E+00  0.00000E+00  0.00000E+00  0.00000E+00    0.17948E+02  0.17566E+02 -0.35514E+02 -0.24405E+01  0.24461E+01  0.14226E+02      982.00
  0.15928E+00  0.59364E+02    0.87500E-01  0.87500E-01 -0.17500E+00  0.00000E+00  0.00000E+00  0.00000E+00    0.17986E+02  0.17647E+02 -0.35633E+02 -0.24308E+01  0.23922E+01  0.14517E+02      982.00
  0.18179E+00  0.59750E+02    0.10000E+00  0.10000E+00 -0.20000E+00  0.00000E+00  0.00000E+00  0.00000E+00    0.18033E+02  0.17733E+02 -0.35765E+02 -0.24121E+01  0.23333E+01  0.14811E+02      982.00
  0.20424E+00  0.60128E+02    0.11250E+00  0.11250E+00 -0.22500E+00  0.00000E+00  0.00000E+00  0.00000E+00    0.18078E+02  0.17823E+02 -0.35900E+02 -0.23887E+01  0.22693E+01  0.15088E+02      982.00
  0.22663E+00  0.60512E+02    0.12500E+00  0.12500E+00 -0.25000E+00  0.00000E+00  0.00000E+00  0.00000E+00    0.18129E+02  0.17911E+02 -0.36040E+02 -0.23592E+01  0.22096E+01  0.15360E+02      982.00
  0.24896E+00  0.60886E+02    0.13750E+00  0.13750E+00 -0.27500E+00  0.00000E+00  0.00000E+00  0.00000E+00    0.18182E+02  0.17998E+02 -0.36180E+02 -0.23272E+01  0.21519E+01  0.15617E+02      982.00
  0.27125E+00  0.61237E+02    0.15000E+00  0.15000E+00 -0.30000E+00  0.00000E+00  0.00000E+00  0.00000E+00    0.18230E+02  0.18085E+02 -0.36316E+02 -0.22941E+01  0.20915E+01  0.15850E+02      982.00
  0.29349E+00  0.61579E+02    0.16250E+00  0.16250E+00 -0.32500E+00  0.00000E+00  0.00000E+00  0.00000E+00    0.18282E+02  0.18168E+02 -0.36450E+02 -0.22625E+01  0.20412E+01  0.16070E+02      982.00
  0.31568E+00  0.61901E+02    0.17500E+00  0.17500E+00 -0.35000E+00  0.00000E+00  0.00000E+00  0.00000E+00    0.18329E+02  0.18249E+02 -0.36578E+02 -0.22284E+01  0.19861E+01  0.16274E+02      982.00
  0.33784E+00  0.62202E+02    0.18750E+00  0.18750E+00 -0.37500E+00  0.00000E+00  0.00000E+00  0.00000E+00    0.18379E+02  0.18323E+02 -0.36702E+02 -0.22014E+01  0.19458E+01  0.16456E+02      982.00
  0.35997E+00  0.62470E+02    0.20000E+00  0.20000E+00 -0.40000E+00  0.00000E+00  0.00000E+00  0.00000E+00    0.18429E+02  0.18386E+02 -0.36816E+02 -0.21818E+01  0.19209E+01  0.16608E+02      982.00
  0.38207E+00  0.62733E+02    0.21250E+00  0.21250E+00 -0.42500E+00  0.00000E+00  0.00000E+00  0.00000E+00    0.18477E+02  0.18451E+02 -0.36928E+02 -0.21594E+01  0.18889E+01  0.16758E+02      982.00
  0.40414E+00  0.62958E+02    0.22500E+00  0.22500E+00 -0.45000E+00  0.00000E+00  0.00000E+00  0.00000E+00    0.18516E+02  0.18509E+02 -0.37025E+02 -0.21377E+01  0.18553E+01  0.16886E+02      982.00
  0.42620E+00  0.63183E+02    0.23750E+00  0.23750E+00 -0.47500E+00  0.00000E+00  0.00000E+00  0.00000E+00    0.18556E+02  0.18565E+02 -0.37121E+02 -0.21163E+01  0.18228E+01  0.17012E+02      982.00
  0.44823E+00  0.63386E+02    0.25000E+00  0.25000E+00 -0.50000E+00  0.00000E+00  0.00000E+00  0.00000E+00    0.18601E+02  0.18613E+02 -0.37214E+02 -0.21065E+01  0.18095E+01  0.17113E+02      982.00
  0.47024E+00  0.63599E+02    0.26250E+00  0.26250E+00 -0.52500E+00  0.00000E+00  0.00000E+00  0.00000E+00    0.18641E+02  0.18664E+02 -0.37306E+02 -0.20829E+01  0.17743E+01  0.17235E+02      982.00
  0.49224E+00  0.63774E+02    0.27500E+00  0.27500E+00 -0.55000E+00  0.00000E+00  0.00000E+00  0.00000E+00    0.18681E+02  0.18706E+02 -0.37387E+02 -0.20736E+01  0.17593E+01  0.17320E+02      982.00
  0.51422E+00  0.63933E+02    0.28750E+00  0.28750E+00 -0.57500E+00  0.00000E+00  0.00000E+00  0.00000E+00    0.18720E+02  0.18742E+02 -0.37461E+02 -0.20661E+01  0.17476E+01  0.17396E+02      982.00
  0.53620E+00  0.64080E+02    0.30000E+00  0.30000E+00 -0.60000E+00  0.00000E+00  0.00000E+00  0.00000E+00    0.18758E+02  0.18774E+02 -0.37531E+02 -0.20599E+01  0.17377E+01  0.17465E+02      982.00
  0.55816E+00  0.64215E+02    0.31250E+00  0.31250E+00 -0.62500E+00  0.00000E+00  0.00000E+00  0.00000E+00    0.18794E+02  0.18802E+02 -0.37596E+02 -0.20548E+01  0.17292E+01  0.17528E+02      982.00
  0.58012E+00  0.64337E+02    0.32500E+00  0.32500E+00 -0.65000E+00  0.00000E+00  0.00000E+00  0.00000E+00    0.18827E+02  0.18823E+02 -0.37650E+02 -0.20475E+01  0.17158E+01  0.17591E+02      982.00
  0.60206E+00  0.64454E+02    0.33750E+00  0.33750E+00 -0.67500E+00  0.00000E+00  0.00000E+00  0.00000E+00    0.18863E+02  0.18846E+02 -0.37709E+02 -0.20445E+01  0.17094E+01  0.17642E+02      982.00
  0.62400E+00  0.64559E+02    0.35000E+00  0.35000E+00 -0.70000E+00  0.00000E+00  0.00000E+00  0.00000E+00    0.18896E+02  0.18864E+02 -0.37760E+02 -0.20425E+01  0.17044E+01  0.17687E+02      982.00
  0.64593E+00  0.64657E+02    0.36250E+00  0.36250E+00 -0.72500E+00  0.00000E+00  0.00000E+00  0.00000E+00    0.18928E+02  0.18880E+02 -0.37809E+02 -0.20411E+01  0.17002E+01  0.17729E+02      982.00
  0.66786E+00  0.64747E+02    0.37500E+00  0.37500E+00 -0.75000E+00  0.00000E+00  0.00000E+00  0.00000E+00    0.18960E+02  0.18894E+02 -0.37854E+02 -0.20404E+01  0.16965E+01  0.17767E+02      982.00
  0.68979E+00  0.64831E+02    0.38750E+00  0.38750E+00 -0.77500E+00  0.00000E+00  0.00000E+00  0.00000E+00    0.18991E+02  0.18905E+02 -0.37896E+02 -0.20401E+01  0.16934E+01  0.17802E+02      982.00
  0.71171E+00  0.64956E+02    0.40000E+00  0.40000E+00 -0.80000E+00  0.00000E+00  0.00000E+00  0.00000E+00    0.19038E+02  0.18918E+02 -0.37956E+02 -0.20368E+01  0.16843E+01  0.17858E+02      982.00
  0.73362E+00  0.65025E+02    0.41250E+00  0.41250E+00 -0.82500E+00  0.00000E+00  0.00000E+00  0.00000E+00    0.19069E+02  0.18922E+02 -0.37991E+02 -0.20364E+01  0.16799E+01  0.17887E+02      982.00
  0.75553E+00  0.65089E+02    0.42500E+00  0.42500E+00 -0.85000E+00  0.00000E+00  0.00000E+00  0.00000E+00    0.19097E+02  0.18926E+02 -0.38023E+02 -0.20376E+01  0.16779E+01  0.17913E+02      982.00
  0.77744E+00  0.65149E+02    0.43750E+00  0.43750E+00 -0.87500E+00  0.00000E+00  0.00000E+00  0.00000E+00    0.19125E+02  0.18929E+02 -0.38054E+02 -0.20395E+01  0.16767E+01  0.17937E+02      982.00
  0.79934E+00  0.65206E+02    0.45000E+00  0.45000E+00 -0.90000E+00  0.00000E+00  0.00000E+00  0.00000E+00    0.19153E+02  0.18930E+02 -0.38083E+02 -0.20416E+01  0.16758E+01  0.17960E+02      982.00
  0.82124E+00  0.65258E+02    0.46250E+00  0.46250E+00 -0.92500E+00  0.00000E+00  0.00000E+00  0.00000E+00    0.19180E+02  0.18930E+02 -0.38110E+02 -0.20440E+01  0.16751E+01  0.17980E+02      982.00
  0.84314E+00  0.65308E+02    0.47500E+00  0.47500E+00 -0.95000E+00  0.00000E+00  0.00000E+00  0.00000E+00    0.19206E+02  0.18929E+02 -0.38135E+02 -0.20465E+01  0.16745E+01  0.18000E+02      982.00
  0.86504E+00  0.65355E+02    0.48750E+00  0.48750E+00 -0.97500E+00  0.00000E+00  0.00000E+00  0.00000E+00    0.19233E+02  0.18926E+02 -0.38159E+02 -0.20491E+01  0.16741E+01  0.18018E+02      982.00
  0.88693E+00  0.65345E+02    0.50000E+00  0.50000E+00 -0.10000E+01  0.00000E+00  0.00000E+00  0.00000E+00    0.19218E+02  0.18938E+02 -0.38156E+02 -0.20508E+01  0.16783E+01  0.18011E+02      982.00
