          Evm          Svm            E11          E22          E33          E23          E13          E12         SDEV11       SDEV22       SDEV33       SDEV23       SDEV13       SDEV12      TEMP
  0.00000E+00  0.56757E+02    0.00000E+00  0.00000E+00  0.00000E+00  0.00000E+00  0.00000E+00  0.00000E+00    0.18693E+02  0.15304E+02 -0.33997E+02 -0.16868E+01  0.49990E+01  0.13276E+02      982.00
  0.22462E-01  0.56741E+02    0.12500E-01  0.12500E-01 -0.25000E-01  0.00000E+00  0.00000E+00  0.00000E+00    0.18322E+02  0.15674E+02 -0.33996E+02 -0.18916E+01  0.45576E+01  0.13426E+02      982.00
  0.44930E-01  0.56841E+02    0.25000E-01  0.25000E-01 -0.50000E-01  0.00000E+00  0.00000E+00  0.00000E+00    0.18079E+02  0.15956E+02 -0.34035E+02 -0.20343E+01  0.42111E+01  0.13608E+02      982.00
  0.67384E-01  0.57048E+02    0.37500E-01  0.37500E-01 -0.75000E-01  0.00000E+00  0.00000E+00  0.00000E+00    0.17920E+02  0.16194E+02 -0.34114E+02 -0.21449E+01  0.39130E+01  0.13832E+02      982.00
  0.89809E-01  0.57342E+02    0.50000E-01  0.50000E-01 -0.10000E+00  0.00000E+00  0.00000E+00  0.00000E+00    0.17835E+02  0.16394E+02 -0.34229E+02 -0.22271E+01  0.36567E+01  0.14087E+02      982.00
  0.11219E+00  0.57703E+02    0.62500E-01  0.62500E-01 -0.12500E+00  0.00000E+00  0.00000E+00  0.00000E+00    0.17803E+02  0.16570E+02 -0.34372E+02 -0.22881E+01  0.34336E+01  0.14367E+02      982.00
  0.13453E+00  0.58113E+02    0.75000E-01  0.75000E-01 -0.15000E+00  0.00000E+00  0.00000E+00  0.00000E+00    0.17809E+02  0.16729E+02 -0.34537E+02 -0.23326E+01  0.32391E+01  0.14658E+02      982.00
  0.15682E+00  0.58551E+02    0.87500E-01  0.87500E-01 -0.17500E+00  0.00000E+00  0.00000E+00  0.00000E+00    0.17841E+02  0.16877E+02 -0.34717E+02 -0.23644E+01  0.30692E+01  0.14952E+02      982.00
  0.17905E+00  0.59001E+02    0.10000E+00  0.10000E+00 -0.20000E+00  0.00000E+00  0.00000E+00  0.00000E+00    0.17889E+02  0.17017E+02 -0.34906E+02 -0.23862E+01  0.29202E+01  0.15237E+02      982.00
  0.20124E+00  0.59459E+02    0.11250E+00  0.11250E+00 -0.22500E+00  0.00000E+00  0.00000E+00  0.00000E+00    0.17951E+02  0.17150E+02 -0.35100E+02 -0.23949E+01  0.27938E+01  0.15516E+02      982.00
  0.22338E+00  0.59900E+02    0.12500E+00  0.12500E+00 -0.25000E+00  0.00000E+00  0.00000E+00  0.00000E+00    0.18011E+02  0.17281E+02 -0.35292E+02 -0.24023E+01  0.26792E+01  0.15772E+02      982.00
  0.24547E+00  0.60336E+02    0.13750E+00  0.13750E+00 -0.27500E+00  0.00000E+00  0.00000E+00  0.00000E+00    0.18078E+02  0.17406E+02 -0.35484E+02 -0.24010E+01  0.25841E+01  0.16019E+02      982.00
  0.26752E+00  0.60741E+02    0.15000E+00  0.15000E+00 -0.30000E+00  0.00000E+00  0.00000E+00  0.00000E+00    0.18136E+02  0.17530E+02 -0.35666E+02 -0.23999E+01  0.24950E+01  0.16238E+02      982.00
  0.28954E+00  0.61135E+02    0.16250E+00  0.16250E+00 -0.32500E+00  0.00000E+00  0.00000E+00  0.00000E+00    0.18198E+02  0.17648E+02 -0.35846E+02 -0.23932E+01  0.24237E+01  0.16446E+02      982.00
  0.31153E+00  0.61504E+02    0.17500E+00  0.17500E+00 -0.35000E+00  0.00000E+00  0.00000E+00  0.00000E+00    0.18256E+02  0.17761E+02 -0.36017E+02 -0.23849E+01  0.23617E+01  0.16634E+02      982.00
  0.33349E+00  0.61838E+02    0.18750E+00  0.18750E+00 -0.37500E+00  0.00000E+00  0.00000E+00  0.00000E+00    0.18303E+02  0.17872E+02 -0.36175E+02 -0.23768E+01  0.23002E+01  0.16799E+02      982.00
  0.35543E+00  0.62157E+02    0.20000E+00  0.20000E+00 -0.40000E+00  0.00000E+00  0.00000E+00  0.00000E+00    0.18352E+02  0.17976E+02 -0.36328E+02 -0.23665E+01  0.22531E+01  0.16951E+02      982.00
  0.37735E+00  0.62449E+02    0.21250E+00  0.21250E+00 -0.42500E+00  0.00000E+00  0.00000E+00  0.00000E+00    0.18391E+02  0.18078E+02 -0.36469E+02 -0.23548E+01  0.22028E+01  0.17089E+02      982.00
  0.39925E+00  0.62720E+02    0.22500E+00  0.22500E+00 -0.45000E+00  0.00000E+00  0.00000E+00  0.00000E+00    0.18433E+02  0.18171E+02 -0.36604E+02 -0.23434E+01  0.21667E+01  0.17210E+02      982.00
  0.42113E+00  0.62942E+02    0.23750E+00  0.23750E+00 -0.47500E+00  0.00000E+00  0.00000E+00  0.00000E+00    0.18467E+02  0.18250E+02 -0.36717E+02 -0.23310E+01  0.21368E+01  0.17304E+02      982.00
  0.44301E+00  0.63194E+02    0.25000E+00  0.25000E+00 -0.50000E+00  0.00000E+00  0.00000E+00  0.00000E+00    0.18508E+02  0.18337E+02 -0.36845E+02 -0.23187E+01  0.21057E+01  0.17412E+02      982.00
  0.46487E+00  0.63379E+02    0.26250E+00  0.26250E+00 -0.52500E+00  0.00000E+00  0.00000E+00  0.00000E+00    0.18537E+02  0.18406E+02 -0.36943E+02 -0.23060E+01  0.20812E+01  0.17485E+02      982.00
  0.48673E+00  0.63575E+02    0.27500E+00  0.27500E+00 -0.55000E+00  0.00000E+00  0.00000E+00  0.00000E+00    0.18570E+02  0.18476E+02 -0.37046E+02 -0.22938E+01  0.20579E+01  0.17563E+02      982.00
  0.50858E+00  0.63748E+02    0.28750E+00  0.28750E+00 -0.57500E+00  0.00000E+00  0.00000E+00  0.00000E+00    0.18593E+02  0.18543E+02 -0.37136E+02 -0.22801E+01  0.20303E+01  0.17634E+02      982.00
  0.53043E+00  0.63932E+02    0.30000E+00  0.30000E+00 -0.60000E+00  0.00000E+00  0.00000E+00  0.00000E+00    0.18620E+02  0.18613E+02 -0.37233E+02 -0.22644E+01  0.20022E+01  0.17709E+02      982.00
  0.55227E+00  0.64082E+02    0.31250E+00  0.31250E+00 -0.62500E+00  0.00000E+00  0.00000E+00  0.00000E+00    0.18647E+02  0.18668E+02 -0.37316E+02 -0.22526E+01  0.19840E+01  0.17762E+02      982.00
  0.57410E+00  0.64220E+02    0.32500E+00  0.32500E+00 -0.65000E+00  0.00000E+00  0.00000E+00  0.00000E+00    0.18675E+02  0.18718E+02 -0.37393E+02 -0.22411E+01  0.19682E+01  0.17809E+02      982.00
  0.59594E+00  0.64347E+02    0.33750E+00  0.33750E+00 -0.67500E+00  0.00000E+00  0.00000E+00  0.00000E+00    0.18701E+02  0.18763E+02 -0.37465E+02 -0.22300E+01  0.19537E+01  0.17852E+02      982.00
  0.61777E+00  0.64464E+02    0.35000E+00  0.35000E+00 -0.70000E+00  0.00000E+00  0.00000E+00  0.00000E+00    0.18727E+02  0.18804E+02 -0.37532E+02 -0.22193E+01  0.19402E+01  0.17890E+02      982.00
  0.63960E+00  0.64573E+02    0.36250E+00  0.36250E+00 -0.72500E+00  0.00000E+00  0.00000E+00  0.00000E+00    0.18753E+02  0.18842E+02 -0.37594E+02 -0.22091E+01  0.19275E+01  0.17924E+02      982.00
  0.66144E+00  0.64673E+02    0.37500E+00  0.37500E+00 -0.75000E+00  0.00000E+00  0.00000E+00  0.00000E+00    0.18777E+02  0.18876E+02 -0.37653E+02 -0.21995E+01  0.19155E+01  0.17955E+02      982.00
  0.68327E+00  0.64784E+02    0.38750E+00  0.38750E+00 -0.77500E+00  0.00000E+00  0.00000E+00  0.00000E+00    0.18804E+02  0.18912E+02 -0.37717E+02 -0.21840E+01  0.18955E+01  0.17992E+02      982.00
  0.70510E+00  0.64868E+02    0.40000E+00  0.40000E+00 -0.80000E+00  0.00000E+00  0.00000E+00  0.00000E+00    0.18827E+02  0.18939E+02 -0.37766E+02 -0.21743E+01  0.18829E+01  0.18017E+02      982.00
  0.72693E+00  0.64921E+02    0.41250E+00  0.41250E+00 -0.82500E+00  0.00000E+00  0.00000E+00  0.00000E+00    0.18844E+02  0.18954E+02 -0.37798E+02 -0.21705E+01  0.18771E+01  0.18032E+02      982.00
  0.74877E+00  0.64999E+02    0.42500E+00  0.42500E+00 -0.85000E+00  0.00000E+00  0.00000E+00  0.00000E+00    0.18869E+02  0.18976E+02 -0.37845E+02 -0.21638E+01  0.18690E+01  0.18053E+02      982.00
  0.77060E+00  0.65067E+02    0.43750E+00  0.43750E+00 -0.87500E+00  0.00000E+00  0.00000E+00  0.00000E+00    0.18892E+02  0.18994E+02 -0.37887E+02 -0.21569E+01  0.18603E+01  0.18071E+02      982.00
  0.79244E+00  0.65131E+02    0.45000E+00  0.45000E+00 -0.90000E+00  0.00000E+00  0.00000E+00  0.00000E+00    0.18916E+02  0.19010E+02 -0.37926E+02 -0.21504E+01  0.18518E+01  0.18088E+02      982.00
  0.81427E+00  0.65191E+02    0.46250E+00  0.46250E+00 -0.92500E+00  0.00000E+00  0.00000E+00  0.00000E+00    0.18939E+02  0.19024E+02 -0.37963E+02 -0.21445E+01  0.18437E+01  0.18104E+02      982.00
  0.83611E+00  0.65247E+02    0.47500E+00  0.47500E+00 -0.95000E+00  0.00000E+00  0.00000E+00  0.00000E+00    0.18962E+02  0.19036E+02 -0.37998E+02 -0.21391E+01  0.18359E+01  0.18118E+02      982.00
  0.85795E+00  0.65300E+02    0.48750E+00  0.48750E+00 -0.97500E+00  0.00000E+00  0.00000E+00  0.00000E+00    0.18985E+02  0.19045E+02 -0.38030E+02 -0.21343E+01  0.18286E+01  0.18131E+02      982.00
  0.87979E+00  0.65307E+02    0.50000E+00  0.50000E+00 -0.10000E+01  0.00000E+00  0.00000E+00  0.00000E+00    0.18981E+02  0.19052E+02 -0.38032E+02 -0.21399E+01  0.18306E+01  0.18135E+02      982.00
