          Evm          Svm            E11          E22          E33          E23          E13          E12         SDEV11       SDEV22       SDEV33       SDEV23       SDEV13       SDEV12      TEMP
  0.00000E+00  0.62016E+02    0.00000E+00  0.00000E+00  0.00000E+00  0.00000E+00  0.00000E+00  0.00000E+00    0.19590E+02  0.18330E+02 -0.37920E+02 -0.12786E+01  0.61588E+00  0.14183E+02      982.00
  0.22929E-01  0.61999E+02    0.12500E-01  0.12500E-01 -0.25000E-01  0.00000E+00  0.00000E+00  0.00000E+00    0.19579E+02  0.18383E+02 -0.37962E+02 -0.12641E+01  0.69614E+00  0.14072E+02      982.00
  0.45891E-01  0.62007E+02    0.25000E-01  0.25000E-01 -0.50000E-01  0.00000E+00  0.00000E+00  0.00000E+00    0.19621E+02  0.18405E+02 -0.38026E+02 -0.12673E+01  0.79617E+00  0.13948E+02      982.00
  0.68888E-01  0.62041E+02    0.37500E-01  0.37500E-01 -0.75000E-01  0.00000E+00  0.00000E+00  0.00000E+00    0.19692E+02  0.18414E+02 -0.38106E+02 -0.12800E+01  0.90065E+00  0.13825E+02      982.00
  0.91920E-01  0.62123E+02    0.50000E-01  0.50000E-01 -0.10000E+00  0.00000E+00  0.00000E+00  0.00000E+00    0.19785E+02  0.18424E+02 -0.38209E+02 -0.12992E+01  0.99707E+00  0.13723E+02      982.00
  0.11498E+00  0.62233E+02    0.62500E-01  0.62500E-01 -0.12500E+00  0.00000E+00  0.00000E+00  0.00000E+00    0.19895E+02  0.18428E+02 -0.38323E+02 -0.13334E+01  0.10997E+01  0.13637E+02      982.00
  0.13808E+00  0.62381E+02    0.75000E-01  0.75000E-01 -0.15000E+00  0.00000E+00  0.00000E+00  0.00000E+00    0.20018E+02  0.18435E+02 -0.38453E+02 -0.13835E+01  0.12024E+01  0.13570E+02      982.00
  0.16119E+00  0.62575E+02    0.87500E-01  0.87500E-01 -0.17500E+00  0.00000E+00  0.00000E+00  0.00000E+00    0.20149E+02  0.18455E+02 -0.38604E+02 -0.14467E+01  0.13031E+01  0.13527E+02      982.00
  0.18433E+00  0.62789E+02    0.10000E+00  0.10000E+00 -0.20000E+00  0.00000E+00  0.00000E+00  0.00000E+00    0.20289E+02  0.18475E+02 -0.38764E+02 -0.15277E+01  0.14081E+01  0.13491E+02      982.00
  0.20748E+00  0.63028E+02    0.11250E+00  0.11250E+00 -0.22500E+00  0.00000E+00  0.00000E+00  0.00000E+00    0.20433E+02  0.18504E+02 -0.38937E+02 -0.16204E+01  0.15128E+01  0.13465E+02      982.00
  0.23065E+00  0.63287E+02    0.12500E+00  0.12500E+00 -0.25000E+00  0.00000E+00  0.00000E+00  0.00000E+00    0.20579E+02  0.18541E+02 -0.39120E+02 -0.17204E+01  0.16153E+01  0.13443E+02      982.00
  0.25383E+00  0.63549E+02    0.13750E+00  0.13750E+00 -0.27500E+00  0.00000E+00  0.00000E+00  0.00000E+00    0.20726E+02  0.18579E+02 -0.39305E+02 -0.18276E+01  0.17161E+01  0.13419E+02      982.00
  0.27702E+00  0.63834E+02    0.15000E+00  0.15000E+00 -0.30000E+00  0.00000E+00  0.00000E+00  0.00000E+00    0.20870E+02  0.18632E+02 -0.39503E+02 -0.19308E+01  0.18092E+01  0.13403E+02      982.00
  0.30023E+00  0.64124E+02    0.16250E+00  0.16250E+00 -0.32500E+00  0.00000E+00  0.00000E+00  0.00000E+00    0.21011E+02  0.18693E+02 -0.39705E+02 -0.20313E+01  0.18960E+01  0.13388E+02      982.00
  0.32345E+00  0.64417E+02    0.17500E+00  0.17500E+00 -0.35000E+00  0.00000E+00  0.00000E+00  0.00000E+00    0.21148E+02  0.18761E+02 -0.39909E+02 -0.21274E+01  0.19759E+01  0.13372E+02      982.00
  0.34668E+00  0.64693E+02    0.18750E+00  0.18750E+00 -0.37500E+00  0.00000E+00  0.00000E+00  0.00000E+00    0.21281E+02  0.18824E+02 -0.40105E+02 -0.22234E+01  0.20519E+01  0.13346E+02      982.00
  0.36992E+00  0.64981E+02    0.20000E+00  0.20000E+00 -0.40000E+00  0.00000E+00  0.00000E+00  0.00000E+00    0.21407E+02  0.18901E+02 -0.40308E+02 -0.23076E+01  0.21173E+01  0.13325E+02      982.00
  0.39319E+00  0.65261E+02    0.21250E+00  0.21250E+00 -0.42500E+00  0.00000E+00  0.00000E+00  0.00000E+00    0.21527E+02  0.18981E+02 -0.40508E+02 -0.23848E+01  0.21755E+01  0.13303E+02      982.00
  0.41646E+00  0.65522E+02    0.22500E+00  0.22500E+00 -0.45000E+00  0.00000E+00  0.00000E+00  0.00000E+00    0.21643E+02  0.19056E+02 -0.40699E+02 -0.24638E+01  0.22326E+01  0.13269E+02      982.00
  0.43976E+00  0.65785E+02    0.23750E+00  0.23750E+00 -0.47500E+00  0.00000E+00  0.00000E+00  0.00000E+00    0.21750E+02  0.19140E+02 -0.40889E+02 -0.25271E+01  0.22767E+01  0.13242E+02      982.00
  0.46306E+00  0.66037E+02    0.25000E+00  0.25000E+00 -0.50000E+00  0.00000E+00  0.00000E+00  0.00000E+00    0.21850E+02  0.19224E+02 -0.41074E+02 -0.25832E+01  0.23141E+01  0.13213E+02      982.00
  0.48639E+00  0.66278E+02    0.26250E+00  0.26250E+00 -0.52500E+00  0.00000E+00  0.00000E+00  0.00000E+00    0.21944E+02  0.19308E+02 -0.41252E+02 -0.26328E+01  0.23452E+01  0.13184E+02      982.00
  0.50973E+00  0.66507E+02    0.27500E+00  0.27500E+00 -0.55000E+00  0.00000E+00  0.00000E+00  0.00000E+00    0.22031E+02  0.19391E+02 -0.41423E+02 -0.26763E+01  0.23706E+01  0.13153E+02      982.00
  0.53308E+00  0.66722E+02    0.28750E+00  0.28750E+00 -0.57500E+00  0.00000E+00  0.00000E+00  0.00000E+00    0.22115E+02  0.19472E+02 -0.41587E+02 -0.27239E+01  0.23971E+01  0.13111E+02      982.00
  0.55646E+00  0.66927E+02    0.30000E+00  0.30000E+00 -0.60000E+00  0.00000E+00  0.00000E+00  0.00000E+00    0.22190E+02  0.19552E+02 -0.41743E+02 -0.27557E+01  0.24115E+01  0.13080E+02      982.00
  0.57985E+00  0.67121E+02    0.31250E+00  0.31250E+00 -0.62500E+00  0.00000E+00  0.00000E+00  0.00000E+00    0.22259E+02  0.19631E+02 -0.41891E+02 -0.27819E+01  0.24209E+01  0.13050E+02      982.00
  0.60325E+00  0.67303E+02    0.32500E+00  0.32500E+00 -0.65000E+00  0.00000E+00  0.00000E+00  0.00000E+00    0.22323E+02  0.19708E+02 -0.42031E+02 -0.28036E+01  0.24263E+01  0.13020E+02      982.00
  0.62667E+00  0.67478E+02    0.33750E+00  0.33750E+00 -0.67500E+00  0.00000E+00  0.00000E+00  0.00000E+00    0.22385E+02  0.19785E+02 -0.42169E+02 -0.28301E+01  0.24326E+01  0.12980E+02      982.00
  0.65010E+00  0.67621E+02    0.35000E+00  0.35000E+00 -0.70000E+00  0.00000E+00  0.00000E+00  0.00000E+00    0.22431E+02  0.19848E+02 -0.42278E+02 -0.28439E+01  0.24319E+01  0.12959E+02      982.00
  0.67355E+00  0.67774E+02    0.36250E+00  0.36250E+00 -0.72500E+00  0.00000E+00  0.00000E+00  0.00000E+00    0.22480E+02  0.19917E+02 -0.42398E+02 -0.28529E+01  0.24264E+01  0.12933E+02      982.00
  0.69701E+00  0.67939E+02    0.37500E+00  0.37500E+00 -0.75000E+00  0.00000E+00  0.00000E+00  0.00000E+00    0.22534E+02  0.19997E+02 -0.42531E+02 -0.28661E+01  0.24194E+01  0.12892E+02      982.00
  0.72049E+00  0.68069E+02    0.38750E+00  0.38750E+00 -0.77500E+00  0.00000E+00  0.00000E+00  0.00000E+00    0.22574E+02  0.20061E+02 -0.42634E+02 -0.28701E+01  0.24087E+01  0.12868E+02      982.00
  0.74397E+00  0.68192E+02    0.40000E+00  0.40000E+00 -0.80000E+00  0.00000E+00  0.00000E+00  0.00000E+00    0.22610E+02  0.20121E+02 -0.42731E+02 -0.28705E+01  0.23960E+01  0.12846E+02      982.00
  0.76747E+00  0.68307E+02    0.41250E+00  0.41250E+00 -0.82500E+00  0.00000E+00  0.00000E+00  0.00000E+00    0.22643E+02  0.20179E+02 -0.42823E+02 -0.28689E+01  0.23821E+01  0.12826E+02      982.00
  0.79098E+00  0.68432E+02    0.42500E+00  0.42500E+00 -0.85000E+00  0.00000E+00  0.00000E+00  0.00000E+00    0.22678E+02  0.20248E+02 -0.42926E+02 -0.28669E+01  0.23623E+01  0.12795E+02      982.00
  0.81450E+00  0.68530E+02    0.43750E+00  0.43750E+00 -0.87500E+00  0.00000E+00  0.00000E+00  0.00000E+00    0.22703E+02  0.20302E+02 -0.43005E+02 -0.28627E+01  0.23445E+01  0.12777E+02      982.00
  0.83804E+00  0.68623E+02    0.45000E+00  0.45000E+00 -0.90000E+00  0.00000E+00  0.00000E+00  0.00000E+00    0.22727E+02  0.20352E+02 -0.43079E+02 -0.28562E+01  0.23268E+01  0.12761E+02      982.00
  0.86158E+00  0.68698E+02    0.46250E+00  0.46250E+00 -0.92500E+00  0.00000E+00  0.00000E+00  0.00000E+00    0.22749E+02  0.20387E+02 -0.43136E+02 -0.28506E+01  0.23178E+01  0.12755E+02      982.00
  0.88513E+00  0.68780E+02    0.47500E+00  0.47500E+00 -0.95000E+00  0.00000E+00  0.00000E+00  0.00000E+00    0.22770E+02  0.20433E+02 -0.43203E+02 -0.28434E+01  0.23035E+01  0.12739E+02      982.00
  0.90868E+00  0.68858E+02    0.48750E+00  0.48750E+00 -0.97500E+00  0.00000E+00  0.00000E+00  0.00000E+00    0.22789E+02  0.20477E+02 -0.43266E+02 -0.28360E+01  0.22877E+01  0.12725E+02      982.00
  0.93224E+00  0.68930E+02    0.50000E+00  0.50000E+00 -0.10000E+01  0.00000E+00  0.00000E+00  0.00000E+00    0.22806E+02  0.20519E+02 -0.43324E+02 -0.28282E+01  0.22718E+01  0.12711E+02      982.00
