          Evm          Svm            E11          E22          E33          E23          E13          E12         SDEV11       SDEV22       SDEV33       SDEV23       SDEV13       SDEV12      TEMP
  0.00000E+00  0.57598E+02    0.00000E+00  0.00000E+00  0.00000E+00  0.00000E+00  0.00000E+00  0.00000E+00    0.15965E+02  0.16860E+02 -0.32824E+02 -0.25355E+01  0.62170E+00  0.17051E+02      982.00
  0.21371E-01  0.57515E+02    0.12500E-01  0.12500E-01 -0.25000E-01  0.00000E+00  0.00000E+00  0.00000E+00    0.15912E+02  0.16940E+02 -0.32852E+02 -0.26990E+01  0.10096E+01  0.16872E+02      982.00
  0.42790E-01  0.57548E+02    0.25000E-01  0.25000E-01 -0.50000E-01  0.00000E+00  0.00000E+00  0.00000E+00    0.15925E+02  0.17003E+02 -0.32928E+02 -0.28028E+01  0.12787E+01  0.16761E+02      982.00
  0.64247E-01  0.57674E+02    0.37500E-01  0.37500E-01 -0.75000E-01  0.00000E+00  0.00000E+00  0.00000E+00    0.15966E+02  0.17076E+02 -0.33042E+02 -0.28619E+01  0.14687E+01  0.16711E+02      982.00
  0.85732E-01  0.57881E+02    0.50000E-01  0.50000E-01 -0.10000E+00  0.00000E+00  0.00000E+00  0.00000E+00    0.16027E+02  0.17164E+02 -0.33191E+02 -0.28908E+01  0.16129E+01  0.16710E+02      982.00
  0.10724E+00  0.58151E+02    0.62500E-01  0.62500E-01 -0.12500E+00  0.00000E+00  0.00000E+00  0.00000E+00    0.16102E+02  0.17262E+02 -0.33364E+02 -0.28950E+01  0.17150E+01  0.16753E+02      982.00
  0.12875E+00  0.58489E+02    0.75000E-01  0.75000E-01 -0.15000E+00  0.00000E+00  0.00000E+00  0.00000E+00    0.16191E+02  0.17369E+02 -0.33561E+02 -0.28883E+01  0.17797E+01  0.16845E+02      982.00
  0.15027E+00  0.58877E+02    0.87500E-01  0.87500E-01 -0.17500E+00  0.00000E+00  0.00000E+00  0.00000E+00    0.16291E+02  0.17486E+02 -0.33778E+02 -0.28762E+01  0.18259E+01  0.16966E+02      982.00
  0.17178E+00  0.59283E+02    0.10000E+00  0.10000E+00 -0.20000E+00  0.00000E+00  0.00000E+00  0.00000E+00    0.16396E+02  0.17605E+02 -0.34001E+02 -0.28587E+01  0.18572E+01  0.17101E+02      982.00
  0.19329E+00  0.59688E+02    0.11250E+00  0.11250E+00 -0.22500E+00  0.00000E+00  0.00000E+00  0.00000E+00    0.16501E+02  0.17723E+02 -0.34224E+02 -0.28304E+01  0.18780E+01  0.17239E+02      982.00
  0.21479E+00  0.60112E+02    0.12500E+00  0.12500E+00 -0.25000E+00  0.00000E+00  0.00000E+00  0.00000E+00    0.16613E+02  0.17843E+02 -0.34456E+02 -0.28113E+01  0.18934E+01  0.17383E+02      982.00
  0.23629E+00  0.60527E+02    0.13750E+00  0.13750E+00 -0.27500E+00  0.00000E+00  0.00000E+00  0.00000E+00    0.16727E+02  0.17959E+02 -0.34686E+02 -0.27929E+01  0.19045E+01  0.17522E+02      982.00
  0.25778E+00  0.60932E+02    0.15000E+00  0.15000E+00 -0.30000E+00  0.00000E+00  0.00000E+00  0.00000E+00    0.16841E+02  0.18069E+02 -0.34910E+02 -0.27667E+01  0.19119E+01  0.17660E+02      982.00
  0.27926E+00  0.61314E+02    0.16250E+00  0.16250E+00 -0.32500E+00  0.00000E+00  0.00000E+00  0.00000E+00    0.16955E+02  0.18173E+02 -0.35128E+02 -0.27492E+01  0.19182E+01  0.17777E+02      982.00
  0.30075E+00  0.61673E+02    0.17500E+00  0.17500E+00 -0.35000E+00  0.00000E+00  0.00000E+00  0.00000E+00    0.17068E+02  0.18270E+02 -0.35338E+02 -0.27325E+01  0.19225E+01  0.17881E+02      982.00
  0.32223E+00  0.62028E+02    0.18750E+00  0.18750E+00 -0.37500E+00  0.00000E+00  0.00000E+00  0.00000E+00    0.17184E+02  0.18361E+02 -0.35545E+02 -0.27078E+01  0.19256E+01  0.17986E+02      982.00
  0.34372E+00  0.62336E+02    0.20000E+00  0.20000E+00 -0.40000E+00  0.00000E+00  0.00000E+00  0.00000E+00    0.17293E+02  0.18441E+02 -0.35734E+02 -0.26892E+01  0.19268E+01  0.18062E+02      982.00
  0.36522E+00  0.62619E+02    0.21250E+00  0.21250E+00 -0.42500E+00  0.00000E+00  0.00000E+00  0.00000E+00    0.17399E+02  0.18514E+02 -0.35913E+02 -0.26718E+01  0.19267E+01  0.18127E+02      982.00
  0.38673E+00  0.62880E+02    0.22500E+00  0.22500E+00 -0.45000E+00  0.00000E+00  0.00000E+00  0.00000E+00    0.17501E+02  0.18580E+02 -0.36081E+02 -0.26541E+01  0.19253E+01  0.18180E+02      982.00
  0.40824E+00  0.63125E+02    0.23750E+00  0.23750E+00 -0.47500E+00  0.00000E+00  0.00000E+00  0.00000E+00    0.17600E+02  0.18641E+02 -0.36241E+02 -0.26358E+01  0.19224E+01  0.18228E+02      982.00
  0.42977E+00  0.63344E+02    0.25000E+00  0.25000E+00 -0.50000E+00  0.00000E+00  0.00000E+00  0.00000E+00    0.17695E+02  0.18694E+02 -0.36389E+02 -0.26170E+01  0.19185E+01  0.18264E+02      982.00
  0.45132E+00  0.63545E+02    0.26250E+00  0.26250E+00 -0.52500E+00  0.00000E+00  0.00000E+00  0.00000E+00    0.17787E+02  0.18741E+02 -0.36528E+02 -0.25978E+01  0.19137E+01  0.18293E+02      982.00
  0.47287E+00  0.63729E+02    0.27500E+00  0.27500E+00 -0.55000E+00  0.00000E+00  0.00000E+00  0.00000E+00    0.17876E+02  0.18782E+02 -0.36658E+02 -0.25784E+01  0.19080E+01  0.18316E+02      982.00
  0.49444E+00  0.63898E+02    0.28750E+00  0.28750E+00 -0.57500E+00  0.00000E+00  0.00000E+00  0.00000E+00    0.17961E+02  0.18817E+02 -0.36779E+02 -0.25587E+01  0.19015E+01  0.18334E+02      982.00
  0.51603E+00  0.64053E+02    0.30000E+00  0.30000E+00 -0.60000E+00  0.00000E+00  0.00000E+00  0.00000E+00    0.18044E+02  0.18849E+02 -0.36892E+02 -0.25390E+01  0.18944E+01  0.18347E+02      982.00
  0.53763E+00  0.64195E+02    0.31250E+00  0.31250E+00 -0.62500E+00  0.00000E+00  0.00000E+00  0.00000E+00    0.18123E+02  0.18875E+02 -0.36998E+02 -0.25193E+01  0.18867E+01  0.18357E+02      982.00
  0.55924E+00  0.64326E+02    0.32500E+00  0.32500E+00 -0.65000E+00  0.00000E+00  0.00000E+00  0.00000E+00    0.18199E+02  0.18898E+02 -0.37097E+02 -0.24999E+01  0.18787E+01  0.18364E+02      982.00
  0.58087E+00  0.64433E+02    0.33750E+00  0.33750E+00 -0.67500E+00  0.00000E+00  0.00000E+00  0.00000E+00    0.18263E+02  0.18914E+02 -0.37178E+02 -0.24850E+01  0.18730E+01  0.18369E+02      982.00
  0.60250E+00  0.64546E+02    0.35000E+00  0.35000E+00 -0.70000E+00  0.00000E+00  0.00000E+00  0.00000E+00    0.18334E+02  0.18932E+02 -0.37265E+02 -0.24667E+01  0.18646E+01  0.18372E+02      982.00
  0.62415E+00  0.64649E+02    0.36250E+00  0.36250E+00 -0.72500E+00  0.00000E+00  0.00000E+00  0.00000E+00    0.18402E+02  0.18945E+02 -0.37347E+02 -0.24482E+01  0.18558E+01  0.18374E+02      982.00
  0.64582E+00  0.64745E+02    0.37500E+00  0.37500E+00 -0.75000E+00  0.00000E+00  0.00000E+00  0.00000E+00    0.18467E+02  0.18956E+02 -0.37422E+02 -0.24302E+01  0.18470E+01  0.18374E+02      982.00
  0.66749E+00  0.64833E+02    0.38750E+00  0.38750E+00 -0.77500E+00  0.00000E+00  0.00000E+00  0.00000E+00    0.18530E+02  0.18964E+02 -0.37493E+02 -0.24128E+01  0.18383E+01  0.18373E+02      982.00
  0.68918E+00  0.64915E+02    0.40000E+00  0.40000E+00 -0.80000E+00  0.00000E+00  0.00000E+00  0.00000E+00    0.18590E+02  0.18969E+02 -0.37560E+02 -0.23959E+01  0.18296E+01  0.18371E+02      982.00
  0.71088E+00  0.64991E+02    0.41250E+00  0.41250E+00 -0.82500E+00  0.00000E+00  0.00000E+00  0.00000E+00    0.18648E+02  0.18973E+02 -0.37621E+02 -0.23798E+01  0.18211E+01  0.18368E+02      982.00
  0.73258E+00  0.65061E+02    0.42500E+00  0.42500E+00 -0.85000E+00  0.00000E+00  0.00000E+00  0.00000E+00    0.18705E+02  0.18975E+02 -0.37679E+02 -0.23643E+01  0.18128E+01  0.18366E+02      982.00
  0.75430E+00  0.65127E+02    0.43750E+00  0.43750E+00 -0.87500E+00  0.00000E+00  0.00000E+00  0.00000E+00    0.18759E+02  0.18975E+02 -0.37733E+02 -0.23495E+01  0.18047E+01  0.18363E+02      982.00
  0.77603E+00  0.65188E+02    0.45000E+00  0.45000E+00 -0.90000E+00  0.00000E+00  0.00000E+00  0.00000E+00    0.18811E+02  0.18973E+02 -0.37784E+02 -0.23355E+01  0.17968E+01  0.18359E+02      982.00
  0.79776E+00  0.65245E+02    0.46250E+00  0.46250E+00 -0.92500E+00  0.00000E+00  0.00000E+00  0.00000E+00    0.18862E+02  0.18970E+02 -0.37831E+02 -0.23221E+01  0.17892E+01  0.18356E+02      982.00
  0.81951E+00  0.65298E+02    0.47500E+00  0.47500E+00 -0.95000E+00  0.00000E+00  0.00000E+00  0.00000E+00    0.18910E+02  0.18966E+02 -0.37876E+02 -0.23095E+01  0.17819E+01  0.18353E+02      982.00
  0.84126E+00  0.65348E+02    0.48750E+00  0.48750E+00 -0.97500E+00  0.00000E+00  0.00000E+00  0.00000E+00    0.18957E+02  0.18960E+02 -0.37917E+02 -0.22976E+01  0.17748E+01  0.18350E+02      982.00
  0.86302E+00  0.65353E+02    0.50000E+00  0.50000E+00 -0.10000E+01  0.00000E+00  0.00000E+00  0.00000E+00    0.18983E+02  0.18945E+02 -0.37928E+02 -0.22781E+01  0.17644E+01  0.18342E+02      982.00
