          Evm          Svm            E11          E22          E33          E23          E13          E12         SDEV11       SDEV22       SDEV33       SDEV23       SDEV13       SDEV12      TEMP
  0.00000E+00  0.57942E+02    0.00000E+00  0.00000E+00  0.00000E+00  0.00000E+00  0.00000E+00  0.00000E+00    0.19418E+02  0.16111E+02 -0.35529E+02 -0.13239E+01  0.34308E+01  0.12494E+02      982.00
  0.22994E-01  0.57938E+02    0.12500E-01  0.12500E-01 -0.25000E-01  0.00000E+00  0.00000E+00  0.00000E+00    0.19012E+02  0.16462E+02 -0.35474E+02 -0.15775E+01  0.32262E+01  0.12672E+02      982.00
  0.45955E-01  0.58031E+02    0.25000E-01  0.25000E-01 -0.50000E-01  0.00000E+00  0.00000E+00  0.00000E+00    0.18733E+02  0.16726E+02 -0.35459E+02 -0.17678E+01  0.30836E+01  0.12880E+02      982.00
  0.68869E-01  0.58207E+02    0.37500E-01  0.37500E-01 -0.75000E-01  0.00000E+00  0.00000E+00  0.00000E+00    0.18536E+02  0.16942E+02 -0.35479E+02 -0.19203E+01  0.29671E+01  0.13121E+02      982.00
  0.91726E-01  0.58451E+02    0.50000E-01  0.50000E-01 -0.10000E+00  0.00000E+00  0.00000E+00  0.00000E+00    0.18398E+02  0.17132E+02 -0.35530E+02 -0.20463E+01  0.28610E+01  0.13390E+02      982.00
  0.11452E+00  0.58748E+02    0.62500E-01  0.62500E-01 -0.12500E+00  0.00000E+00  0.00000E+00  0.00000E+00    0.18315E+02  0.17291E+02 -0.35606E+02 -0.21418E+01  0.27683E+01  0.13679E+02      982.00
  0.13725E+00  0.59082E+02    0.75000E-01  0.75000E-01 -0.15000E+00  0.00000E+00  0.00000E+00  0.00000E+00    0.18270E+02  0.17430E+02 -0.35700E+02 -0.22126E+01  0.26825E+01  0.13979E+02      982.00
  0.15991E+00  0.59442E+02    0.87500E-01  0.87500E-01 -0.17500E+00  0.00000E+00  0.00000E+00  0.00000E+00    0.18258E+02  0.17552E+02 -0.35810E+02 -0.22581E+01  0.26041E+01  0.14283E+02      982.00
  0.18250E+00  0.59809E+02    0.10000E+00  0.10000E+00 -0.20000E+00  0.00000E+00  0.00000E+00  0.00000E+00    0.18257E+02  0.17670E+02 -0.35927E+02 -0.22916E+01  0.25254E+01  0.14581E+02      982.00
  0.20503E+00  0.60184E+02    0.11250E+00  0.11250E+00 -0.22500E+00  0.00000E+00  0.00000E+00  0.00000E+00    0.18278E+02  0.17774E+02 -0.36051E+02 -0.23029E+01  0.24527E+01  0.14874E+02      982.00
  0.22749E+00  0.60545E+02    0.12500E+00  0.12500E+00 -0.25000E+00  0.00000E+00  0.00000E+00  0.00000E+00    0.18300E+02  0.17874E+02 -0.36174E+02 -0.23062E+01  0.23796E+01  0.15147E+02      982.00
  0.24989E+00  0.60904E+02    0.13750E+00  0.13750E+00 -0.27500E+00  0.00000E+00  0.00000E+00  0.00000E+00    0.18332E+02  0.17968E+02 -0.36300E+02 -0.22961E+01  0.23127E+01  0.15411E+02      982.00
  0.27224E+00  0.61240E+02    0.15000E+00  0.15000E+00 -0.30000E+00  0.00000E+00  0.00000E+00  0.00000E+00    0.18360E+02  0.18061E+02 -0.36422E+02 -0.22831E+01  0.22454E+01  0.15650E+02      982.00
  0.29455E+00  0.61569E+02    0.16250E+00  0.16250E+00 -0.32500E+00  0.00000E+00  0.00000E+00  0.00000E+00    0.18395E+02  0.18148E+02 -0.36543E+02 -0.22626E+01  0.21867E+01  0.15879E+02      982.00
  0.31680E+00  0.61873E+02    0.17500E+00  0.17500E+00 -0.35000E+00  0.00000E+00  0.00000E+00  0.00000E+00    0.18423E+02  0.18235E+02 -0.36658E+02 -0.22413E+01  0.21263E+01  0.16084E+02      982.00
  0.33902E+00  0.62166E+02    0.18750E+00  0.18750E+00 -0.37500E+00  0.00000E+00  0.00000E+00  0.00000E+00    0.18456E+02  0.18314E+02 -0.36770E+02 -0.22181E+01  0.20778E+01  0.16277E+02      982.00
  0.36120E+00  0.62425E+02    0.20000E+00  0.20000E+00 -0.40000E+00  0.00000E+00  0.00000E+00  0.00000E+00    0.18486E+02  0.18385E+02 -0.36872E+02 -0.21965E+01  0.20382E+01  0.16442E+02      982.00
  0.38335E+00  0.62683E+02    0.21250E+00  0.21250E+00 -0.42500E+00  0.00000E+00  0.00000E+00  0.00000E+00    0.18517E+02  0.18457E+02 -0.36975E+02 -0.21748E+01  0.19992E+01  0.16602E+02      982.00
  0.40547E+00  0.62923E+02    0.22500E+00  0.22500E+00 -0.45000E+00  0.00000E+00  0.00000E+00  0.00000E+00    0.18547E+02  0.18525E+02 -0.37072E+02 -0.21549E+01  0.19647E+01  0.16748E+02      982.00
  0.42757E+00  0.63128E+02    0.23750E+00  0.23750E+00 -0.47500E+00  0.00000E+00  0.00000E+00  0.00000E+00    0.18567E+02  0.18590E+02 -0.37157E+02 -0.21355E+01  0.19279E+01  0.16872E+02      982.00
  0.44964E+00  0.63336E+02    0.25000E+00  0.25000E+00 -0.50000E+00  0.00000E+00  0.00000E+00  0.00000E+00    0.18594E+02  0.18650E+02 -0.37244E+02 -0.21196E+01  0.19017E+01  0.16991E+02      982.00
  0.47169E+00  0.63519E+02    0.26250E+00  0.26250E+00 -0.52500E+00  0.00000E+00  0.00000E+00  0.00000E+00    0.18618E+02  0.18704E+02 -0.37322E+02 -0.21048E+01  0.18780E+01  0.17095E+02      982.00
  0.49372E+00  0.63691E+02    0.27500E+00  0.27500E+00 -0.55000E+00  0.00000E+00  0.00000E+00  0.00000E+00    0.18637E+02  0.18757E+02 -0.37395E+02 -0.20885E+01  0.18499E+01  0.17194E+02      982.00
  0.51574E+00  0.63856E+02    0.28750E+00  0.28750E+00 -0.57500E+00  0.00000E+00  0.00000E+00  0.00000E+00    0.18662E+02  0.18805E+02 -0.37467E+02 -0.20782E+01  0.18331E+01  0.17283E+02      982.00
  0.53774E+00  0.64024E+02    0.30000E+00  0.30000E+00 -0.60000E+00  0.00000E+00  0.00000E+00  0.00000E+00    0.18684E+02  0.18855E+02 -0.37539E+02 -0.20628E+01  0.18086E+01  0.17376E+02      982.00
  0.55973E+00  0.64162E+02    0.31250E+00  0.31250E+00 -0.62500E+00  0.00000E+00  0.00000E+00  0.00000E+00    0.18707E+02  0.18895E+02 -0.37602E+02 -0.20555E+01  0.17960E+01  0.17446E+02      982.00
  0.58171E+00  0.64249E+02    0.32500E+00  0.32500E+00 -0.65000E+00  0.00000E+00  0.00000E+00  0.00000E+00    0.18726E+02  0.18918E+02 -0.37644E+02 -0.20555E+01  0.17966E+01  0.17485E+02      982.00
  0.60368E+00  0.64368E+02    0.33750E+00  0.33750E+00 -0.67500E+00  0.00000E+00  0.00000E+00  0.00000E+00    0.18748E+02  0.18950E+02 -0.37698E+02 -0.20493E+01  0.17873E+01  0.17545E+02      982.00
  0.62564E+00  0.64508E+02    0.35000E+00  0.35000E+00 -0.70000E+00  0.00000E+00  0.00000E+00  0.00000E+00    0.18769E+02  0.18988E+02 -0.37757E+02 -0.20370E+01  0.17644E+01  0.17625E+02      982.00
  0.64759E+00  0.64614E+02    0.36250E+00  0.36250E+00 -0.72500E+00  0.00000E+00  0.00000E+00  0.00000E+00    0.18791E+02  0.19016E+02 -0.37808E+02 -0.20333E+01  0.17559E+01  0.17673E+02      982.00
  0.66953E+00  0.64706E+02    0.37500E+00  0.37500E+00 -0.75000E+00  0.00000E+00  0.00000E+00  0.00000E+00    0.18813E+02  0.19039E+02 -0.37851E+02 -0.20313E+01  0.17500E+01  0.17716E+02      982.00
  0.69147E+00  0.64792E+02    0.38750E+00  0.38750E+00 -0.77500E+00  0.00000E+00  0.00000E+00  0.00000E+00    0.18834E+02  0.19058E+02 -0.37893E+02 -0.20298E+01  0.17452E+01  0.17756E+02      982.00
  0.71340E+00  0.64873E+02    0.40000E+00  0.40000E+00 -0.80000E+00  0.00000E+00  0.00000E+00  0.00000E+00    0.18856E+02  0.19076E+02 -0.37931E+02 -0.20288E+01  0.17410E+01  0.17793E+02      982.00
  0.73533E+00  0.64948E+02    0.41250E+00  0.41250E+00 -0.82500E+00  0.00000E+00  0.00000E+00  0.00000E+00    0.18877E+02  0.19091E+02 -0.37968E+02 -0.20283E+01  0.17373E+01  0.17827E+02      982.00
  0.75725E+00  0.65059E+02    0.42500E+00  0.42500E+00 -0.85000E+00  0.00000E+00  0.00000E+00  0.00000E+00    0.18909E+02  0.19109E+02 -0.38018E+02 -0.20251E+01  0.17268E+01  0.17881E+02      982.00
  0.77916E+00  0.65121E+02    0.43750E+00  0.43750E+00 -0.87500E+00  0.00000E+00  0.00000E+00  0.00000E+00    0.18930E+02  0.19118E+02 -0.38048E+02 -0.20244E+01  0.17212E+01  0.17909E+02      982.00
  0.80107E+00  0.65179E+02    0.45000E+00  0.45000E+00 -0.90000E+00  0.00000E+00  0.00000E+00  0.00000E+00    0.18951E+02  0.19126E+02 -0.38077E+02 -0.20255E+01  0.17182E+01  0.17934E+02      982.00
  0.82298E+00  0.65233E+02    0.46250E+00  0.46250E+00 -0.92500E+00  0.00000E+00  0.00000E+00  0.00000E+00    0.18972E+02  0.19132E+02 -0.38104E+02 -0.20272E+01  0.17161E+01  0.17958E+02      982.00
  0.84488E+00  0.65285E+02    0.47500E+00  0.47500E+00 -0.95000E+00  0.00000E+00  0.00000E+00  0.00000E+00    0.18993E+02  0.19136E+02 -0.38129E+02 -0.20292E+01  0.17145E+01  0.17980E+02      982.00
  0.86679E+00  0.65333E+02    0.48750E+00  0.48750E+00 -0.97500E+00  0.00000E+00  0.00000E+00  0.00000E+00    0.19014E+02  0.19139E+02 -0.38153E+02 -0.20314E+01  0.17130E+01  0.18000E+02      982.00
  0.88869E+00  0.65322E+02    0.50000E+00  0.50000E+00 -0.10000E+01  0.00000E+00  0.00000E+00  0.00000E+00    0.19004E+02  0.19146E+02 -0.38150E+02 -0.20350E+01  0.17183E+01  0.17991E+02      982.00
