          Evm          Svm            E11          E22          E33          E23          E13          E12         SDEV11       SDEV22       SDEV33       SDEV23       SDEV13       SDEV12      TEMP
  0.00000E+00  0.57832E+02    0.00000E+00  0.00000E+00  0.00000E+00  0.00000E+00  0.00000E+00  0.00000E+00    0.19967E+02  0.15514E+02 -0.35480E+02 -0.91228E+00  0.39545E+01  0.12218E+02      982.00
  0.23006E-01  0.57832E+02    0.12500E-01  0.12500E-01 -0.25000E-01  0.00000E+00  0.00000E+00  0.00000E+00    0.19450E+02  0.15986E+02 -0.35436E+02 -0.12296E+01  0.36579E+01  0.12457E+02      982.00
  0.45984E-01  0.57916E+02    0.25000E-01  0.25000E-01 -0.50000E-01  0.00000E+00  0.00000E+00  0.00000E+00    0.19069E+02  0.16351E+02 -0.35420E+02 -0.14745E+01  0.34405E+01  0.12701E+02      982.00
  0.68918E-01  0.58085E+02    0.37500E-01  0.37500E-01 -0.75000E-01  0.00000E+00  0.00000E+00  0.00000E+00    0.18787E+02  0.16650E+02 -0.35437E+02 -0.16749E+01  0.32600E+01  0.12970E+02      982.00
  0.91796E-01  0.58326E+02    0.50000E-01  0.50000E-01 -0.10000E+00  0.00000E+00  0.00000E+00  0.00000E+00    0.18588E+02  0.16897E+02 -0.35486E+02 -0.18359E+01  0.31058E+01  0.13260E+02      982.00
  0.11461E+00  0.58623E+02    0.62500E-01  0.62500E-01 -0.12500E+00  0.00000E+00  0.00000E+00  0.00000E+00    0.18457E+02  0.17103E+02 -0.35560E+02 -0.19621E+01  0.29705E+01  0.13566E+02      982.00
  0.13736E+00  0.58959E+02    0.75000E-01  0.75000E-01 -0.15000E+00  0.00000E+00  0.00000E+00  0.00000E+00    0.18378E+02  0.17276E+02 -0.35654E+02 -0.20577E+01  0.28493E+01  0.13880E+02      982.00
  0.16004E+00  0.59319E+02    0.87500E-01  0.87500E-01 -0.17500E+00  0.00000E+00  0.00000E+00  0.00000E+00    0.18336E+02  0.17426E+02 -0.35762E+02 -0.21267E+01  0.27388E+01  0.14195E+02      982.00
  0.18264E+00  0.59696E+02    0.10000E+00  0.10000E+00 -0.20000E+00  0.00000E+00  0.00000E+00  0.00000E+00    0.18323E+02  0.17559E+02 -0.35881E+02 -0.21726E+01  0.26383E+01  0.14507E+02      982.00
  0.20518E+00  0.60070E+02    0.11250E+00  0.11250E+00 -0.22500E+00  0.00000E+00  0.00000E+00  0.00000E+00    0.18325E+02  0.17678E+02 -0.36004E+02 -0.22016E+01  0.25446E+01  0.14805E+02      982.00
  0.22766E+00  0.60438E+02    0.12500E+00  0.12500E+00 -0.25000E+00  0.00000E+00  0.00000E+00  0.00000E+00    0.18339E+02  0.17789E+02 -0.36128E+02 -0.22170E+01  0.24576E+01  0.15087E+02      982.00
  0.25008E+00  0.60793E+02    0.13750E+00  0.13750E+00 -0.27500E+00  0.00000E+00  0.00000E+00  0.00000E+00    0.18359E+02  0.17893E+02 -0.36252E+02 -0.22221E+01  0.23764E+01  0.15350E+02      982.00
  0.27244E+00  0.61143E+02    0.15000E+00  0.15000E+00 -0.30000E+00  0.00000E+00  0.00000E+00  0.00000E+00    0.18388E+02  0.17990E+02 -0.36377E+02 -0.22151E+01  0.23050E+01  0.15601E+02      982.00
  0.29475E+00  0.61469E+02    0.16250E+00  0.16250E+00 -0.32500E+00  0.00000E+00  0.00000E+00  0.00000E+00    0.18412E+02  0.18086E+02 -0.36498E+02 -0.22071E+01  0.22360E+01  0.15827E+02      982.00
  0.31701E+00  0.61786E+02    0.17500E+00  0.17500E+00 -0.35000E+00  0.00000E+00  0.00000E+00  0.00000E+00    0.18442E+02  0.18175E+02 -0.36617E+02 -0.21924E+01  0.21780E+01  0.16041E+02      982.00
  0.33924E+00  0.62079E+02    0.18750E+00  0.18750E+00 -0.37500E+00  0.00000E+00  0.00000E+00  0.00000E+00    0.18465E+02  0.18265E+02 -0.36730E+02 -0.21781E+01  0.21197E+01  0.16233E+02      982.00
  0.36143E+00  0.62344E+02    0.20000E+00  0.20000E+00 -0.40000E+00  0.00000E+00  0.00000E+00  0.00000E+00    0.18490E+02  0.18344E+02 -0.36834E+02 -0.21623E+01  0.20783E+01  0.16402E+02      982.00
  0.38358E+00  0.62608E+02    0.21250E+00  0.21250E+00 -0.42500E+00  0.00000E+00  0.00000E+00  0.00000E+00    0.18517E+02  0.18423E+02 -0.36939E+02 -0.21461E+01  0.20382E+01  0.16566E+02      982.00
  0.40571E+00  0.62853E+02    0.22500E+00  0.22500E+00 -0.45000E+00  0.00000E+00  0.00000E+00  0.00000E+00    0.18541E+02  0.18498E+02 -0.37039E+02 -0.21311E+01  0.20029E+01  0.16714E+02      982.00
  0.42781E+00  0.63064E+02    0.23750E+00  0.23750E+00 -0.47500E+00  0.00000E+00  0.00000E+00  0.00000E+00    0.18555E+02  0.18570E+02 -0.37125E+02 -0.21167E+01  0.19649E+01  0.16841E+02      982.00
  0.44988E+00  0.63277E+02    0.25000E+00  0.25000E+00 -0.50000E+00  0.00000E+00  0.00000E+00  0.00000E+00    0.18576E+02  0.18638E+02 -0.37215E+02 -0.21043E+01  0.19383E+01  0.16964E+02      982.00
  0.47194E+00  0.63464E+02    0.26250E+00  0.26250E+00 -0.52500E+00  0.00000E+00  0.00000E+00  0.00000E+00    0.18594E+02  0.18700E+02 -0.37294E+02 -0.20925E+01  0.19143E+01  0.17070E+02      982.00
  0.49397E+00  0.63646E+02    0.27500E+00  0.27500E+00 -0.55000E+00  0.00000E+00  0.00000E+00  0.00000E+00    0.18614E+02  0.18759E+02 -0.37372E+02 -0.20823E+01  0.18942E+01  0.17171E+02      982.00
  0.51599E+00  0.63809E+02    0.28750E+00  0.28750E+00 -0.57500E+00  0.00000E+00  0.00000E+00  0.00000E+00    0.18625E+02  0.18817E+02 -0.37442E+02 -0.20705E+01  0.18688E+01  0.17262E+02      982.00
  0.53800E+00  0.63965E+02    0.30000E+00  0.30000E+00 -0.60000E+00  0.00000E+00  0.00000E+00  0.00000E+00    0.18643E+02  0.18868E+02 -0.37511E+02 -0.20632E+01  0.18538E+01  0.17345E+02      982.00
  0.55999E+00  0.64123E+02    0.31250E+00  0.31250E+00 -0.62500E+00  0.00000E+00  0.00000E+00  0.00000E+00    0.18657E+02  0.18923E+02 -0.37580E+02 -0.20517E+01  0.18315E+01  0.17431E+02      982.00
  0.58197E+00  0.64245E+02    0.32500E+00  0.32500E+00 -0.65000E+00  0.00000E+00  0.00000E+00  0.00000E+00    0.18684E+02  0.18955E+02 -0.37640E+02 -0.20533E+01  0.18371E+01  0.17483E+02      982.00
  0.60394E+00  0.64367E+02    0.33750E+00  0.33750E+00 -0.67500E+00  0.00000E+00  0.00000E+00  0.00000E+00    0.18701E+02  0.18994E+02 -0.37695E+02 -0.20474E+01  0.18270E+01  0.17543E+02      982.00
  0.62590E+00  0.64448E+02    0.35000E+00  0.35000E+00 -0.70000E+00  0.00000E+00  0.00000E+00  0.00000E+00    0.18706E+02  0.19025E+02 -0.37731E+02 -0.20408E+01  0.18125E+01  0.17588E+02      982.00
  0.64785E+00  0.64581E+02    0.36250E+00  0.36250E+00 -0.72500E+00  0.00000E+00  0.00000E+00  0.00000E+00    0.18718E+02  0.19069E+02 -0.37787E+02 -0.20318E+01  0.17909E+01  0.17664E+02      982.00
  0.66979E+00  0.64682E+02    0.37500E+00  0.37500E+00 -0.75000E+00  0.00000E+00  0.00000E+00  0.00000E+00    0.18735E+02  0.19100E+02 -0.37835E+02 -0.20290E+01  0.17824E+01  0.17710E+02      982.00
  0.69173E+00  0.64770E+02    0.38750E+00  0.38750E+00 -0.77500E+00  0.00000E+00  0.00000E+00  0.00000E+00    0.18752E+02  0.19125E+02 -0.37877E+02 -0.20275E+01  0.17765E+01  0.17751E+02      982.00
  0.71366E+00  0.64853E+02    0.40000E+00  0.40000E+00 -0.80000E+00  0.00000E+00  0.00000E+00  0.00000E+00    0.18769E+02  0.19147E+02 -0.37916E+02 -0.20263E+01  0.17717E+01  0.17789E+02      982.00
  0.73558E+00  0.64930E+02    0.41250E+00  0.41250E+00 -0.82500E+00  0.00000E+00  0.00000E+00  0.00000E+00    0.18787E+02  0.19166E+02 -0.37953E+02 -0.20255E+01  0.17674E+01  0.17824E+02      982.00
  0.75750E+00  0.65001E+02    0.42500E+00  0.42500E+00 -0.85000E+00  0.00000E+00  0.00000E+00  0.00000E+00    0.18804E+02  0.19184E+02 -0.37988E+02 -0.20252E+01  0.17635E+01  0.17856E+02      982.00
  0.77942E+00  0.65106E+02    0.43750E+00  0.43750E+00 -0.87500E+00  0.00000E+00  0.00000E+00  0.00000E+00    0.18830E+02  0.19206E+02 -0.38036E+02 -0.20226E+01  0.17528E+01  0.17907E+02      982.00
  0.80133E+00  0.65166E+02    0.45000E+00  0.45000E+00 -0.90000E+00  0.00000E+00  0.00000E+00  0.00000E+00    0.18848E+02  0.19218E+02 -0.38065E+02 -0.20222E+01  0.17467E+01  0.17934E+02      982.00
  0.82323E+00  0.65221E+02    0.46250E+00  0.46250E+00 -0.92500E+00  0.00000E+00  0.00000E+00  0.00000E+00    0.18866E+02  0.19227E+02 -0.38093E+02 -0.20232E+01  0.17432E+01  0.17958E+02      982.00
  0.84513E+00  0.65274E+02    0.47500E+00  0.47500E+00 -0.95000E+00  0.00000E+00  0.00000E+00  0.00000E+00    0.18884E+02  0.19234E+02 -0.38118E+02 -0.20247E+01  0.17406E+01  0.17980E+02      982.00
  0.86703E+00  0.65323E+02    0.48750E+00  0.48750E+00 -0.97500E+00  0.00000E+00  0.00000E+00  0.00000E+00    0.18903E+02  0.19240E+02 -0.38143E+02 -0.20265E+01  0.17384E+01  0.18001E+02      982.00
  0.88893E+00  0.65311E+02    0.50000E+00  0.50000E+00 -0.10000E+01  0.00000E+00  0.00000E+00  0.00000E+00    0.18895E+02  0.19245E+02 -0.38139E+02 -0.20307E+01  0.17436E+01  0.17992E+02      982.00
