          Evm          Svm            E11          E22          E33          E23          E13          E12         SDEV11       SDEV22       SDEV33       SDEV23       SDEV13       SDEV12      TEMP
  0.00000E+00  0.68200E+02    0.00000E+00  0.00000E+00  0.00000E+00  0.00000E+00  0.00000E+00  0.00000E+00    0.23283E+02  0.21640E+02 -0.44923E+02  0.21699E+01  0.59535E+00 -0.55805E+01      982.00
  0.24701E-01  0.67980E+02    0.12500E-01  0.12500E-01 -0.25000E-01  0.00000E+00  0.00000E+00  0.00000E+00    0.23394E+02  0.21418E+02 -0.44812E+02  0.21583E+01  0.64254E+00 -0.53206E+01      982.00
  0.49421E-01  0.67815E+02    0.25000E-01  0.25000E-01 -0.50000E-01  0.00000E+00  0.00000E+00  0.00000E+00    0.23516E+02  0.21239E+02 -0.44755E+02  0.21238E+01  0.67098E+00 -0.49432E+01      982.00
  0.74169E-01  0.67696E+02    0.37500E-01  0.37500E-01 -0.75000E-01  0.00000E+00  0.00000E+00  0.00000E+00    0.23659E+02  0.21082E+02 -0.44741E+02  0.20771E+01  0.71772E+00 -0.44512E+01      982.00
  0.98953E-01  0.67624E+02    0.50000E-01  0.50000E-01 -0.10000E+00  0.00000E+00  0.00000E+00  0.00000E+00    0.23790E+02  0.20961E+02 -0.44752E+02  0.20490E+01  0.80818E+00 -0.39324E+01      982.00
  0.12377E+00  0.67617E+02    0.62500E-01  0.62500E-01 -0.12500E+00  0.00000E+00  0.00000E+00  0.00000E+00    0.23926E+02  0.20863E+02 -0.44789E+02  0.20653E+01  0.96446E+00 -0.34581E+01      982.00
  0.14861E+00  0.67669E+02    0.75000E-01  0.75000E-01 -0.15000E+00  0.00000E+00  0.00000E+00  0.00000E+00    0.24048E+02  0.20796E+02 -0.44844E+02  0.21313E+01  0.11617E+01 -0.30943E+01      982.00
  0.17346E+00  0.67774E+02    0.87500E-01  0.87500E-01 -0.17500E+00  0.00000E+00  0.00000E+00  0.00000E+00    0.24171E+02  0.20748E+02 -0.44919E+02  0.22283E+01  0.13736E+01 -0.28409E+01      982.00
  0.19831E+00  0.67917E+02    0.10000E+00  0.10000E+00 -0.20000E+00  0.00000E+00  0.00000E+00  0.00000E+00    0.24292E+02  0.20714E+02 -0.45005E+02  0.23434E+01  0.15793E+01 -0.26965E+01      982.00
  0.22316E+00  0.68089E+02    0.11250E+00  0.11250E+00 -0.22500E+00  0.00000E+00  0.00000E+00  0.00000E+00    0.24421E+02  0.20682E+02 -0.45103E+02  0.24621E+01  0.17690E+01 -0.26354E+01      982.00
  0.24800E+00  0.68281E+02    0.12500E+00  0.12500E+00 -0.25000E+00  0.00000E+00  0.00000E+00  0.00000E+00    0.24554E+02  0.20655E+02 -0.45208E+02  0.25812E+01  0.19381E+01 -0.26519E+01      982.00
  0.27283E+00  0.68489E+02    0.13750E+00  0.13750E+00 -0.27500E+00  0.00000E+00  0.00000E+00  0.00000E+00    0.24691E+02  0.20627E+02 -0.45318E+02  0.26985E+01  0.20885E+01 -0.27365E+01      982.00
  0.29765E+00  0.68699E+02    0.15000E+00  0.15000E+00 -0.30000E+00  0.00000E+00  0.00000E+00  0.00000E+00    0.24822E+02  0.20606E+02 -0.45429E+02  0.28087E+01  0.22120E+01 -0.28560E+01      982.00
  0.32244E+00  0.68909E+02    0.16250E+00  0.16250E+00 -0.32500E+00  0.00000E+00  0.00000E+00  0.00000E+00    0.24953E+02  0.20583E+02 -0.45536E+02  0.29124E+01  0.23176E+01 -0.30062E+01      982.00
  0.34722E+00  0.69113E+02    0.17500E+00  0.17500E+00 -0.35000E+00  0.00000E+00  0.00000E+00  0.00000E+00    0.25081E+02  0.20557E+02 -0.45638E+02  0.30096E+01  0.24078E+01 -0.31783E+01      982.00
  0.37199E+00  0.69303E+02    0.18750E+00  0.18750E+00 -0.37500E+00  0.00000E+00  0.00000E+00  0.00000E+00    0.25208E+02  0.20521E+02 -0.45729E+02  0.30978E+01  0.24847E+01 -0.33747E+01      982.00
  0.39673E+00  0.69485E+02    0.20000E+00  0.20000E+00 -0.40000E+00  0.00000E+00  0.00000E+00  0.00000E+00    0.25329E+02  0.20485E+02 -0.45813E+02  0.31829E+01  0.25503E+01 -0.35721E+01      982.00
  0.42145E+00  0.69653E+02    0.21250E+00  0.21250E+00 -0.42500E+00  0.00000E+00  0.00000E+00  0.00000E+00    0.25445E+02  0.20443E+02 -0.45887E+02  0.32631E+01  0.26066E+01 -0.37746E+01      982.00
  0.44616E+00  0.69806E+02    0.22500E+00  0.22500E+00 -0.45000E+00  0.00000E+00  0.00000E+00  0.00000E+00    0.25556E+02  0.20395E+02 -0.45951E+02  0.33388E+01  0.26552E+01 -0.39787E+01      982.00
  0.47084E+00  0.69944E+02    0.23750E+00  0.23750E+00 -0.47500E+00  0.00000E+00  0.00000E+00  0.00000E+00    0.25662E+02  0.20341E+02 -0.46003E+02  0.34104E+01  0.26972E+01 -0.41817E+01      982.00
  0.49551E+00  0.70067E+02    0.25000E+00  0.25000E+00 -0.50000E+00  0.00000E+00  0.00000E+00  0.00000E+00    0.25765E+02  0.20281E+02 -0.46046E+02  0.34785E+01  0.27335E+01 -0.43814E+01      982.00
  0.52015E+00  0.70178E+02    0.26250E+00  0.26250E+00 -0.52500E+00  0.00000E+00  0.00000E+00  0.00000E+00    0.25864E+02  0.20216E+02 -0.46080E+02  0.35433E+01  0.27647E+01 -0.45760E+01      982.00
  0.54478E+00  0.70275E+02    0.27500E+00  0.27500E+00 -0.55000E+00  0.00000E+00  0.00000E+00  0.00000E+00    0.25960E+02  0.20145E+02 -0.46105E+02  0.36053E+01  0.27915E+01 -0.47641E+01      982.00
  0.56938E+00  0.70361E+02    0.28750E+00  0.28750E+00 -0.57500E+00  0.00000E+00  0.00000E+00  0.00000E+00    0.26053E+02  0.20070E+02 -0.46123E+02  0.36648E+01  0.28144E+01 -0.49446E+01      982.00
  0.59396E+00  0.70445E+02    0.30000E+00  0.30000E+00 -0.60000E+00  0.00000E+00  0.00000E+00  0.00000E+00    0.26153E+02  0.19981E+02 -0.46134E+02  0.37238E+01  0.28337E+01 -0.51474E+01      982.00
  0.61852E+00  0.70510E+02    0.31250E+00  0.31250E+00 -0.62500E+00  0.00000E+00  0.00000E+00  0.00000E+00    0.26241E+02  0.19897E+02 -0.46139E+02  0.37783E+01  0.28486E+01 -0.53086E+01      982.00
  0.64306E+00  0.70566E+02    0.32500E+00  0.32500E+00 -0.65000E+00  0.00000E+00  0.00000E+00  0.00000E+00    0.26329E+02  0.19809E+02 -0.46138E+02  0.38314E+01  0.28610E+01 -0.54595E+01      982.00
  0.66758E+00  0.70614E+02    0.33750E+00  0.33750E+00 -0.67500E+00  0.00000E+00  0.00000E+00  0.00000E+00    0.26415E+02  0.19718E+02 -0.46134E+02  0.38830E+01  0.28707E+01 -0.56008E+01      982.00
  0.69208E+00  0.70656E+02    0.35000E+00  0.35000E+00 -0.70000E+00  0.00000E+00  0.00000E+00  0.00000E+00    0.26501E+02  0.19624E+02 -0.46125E+02  0.39331E+01  0.28778E+01 -0.57324E+01      982.00
  0.71656E+00  0.70691E+02    0.36250E+00  0.36250E+00 -0.72500E+00  0.00000E+00  0.00000E+00  0.00000E+00    0.26587E+02  0.19526E+02 -0.46113E+02  0.39819E+01  0.28824E+01 -0.58544E+01      982.00
  0.74102E+00  0.70720E+02    0.37500E+00  0.37500E+00 -0.75000E+00  0.00000E+00  0.00000E+00  0.00000E+00    0.26673E+02  0.19426E+02 -0.46099E+02  0.40298E+01  0.28850E+01 -0.59666E+01      982.00
  0.76546E+00  0.70752E+02    0.38750E+00  0.38750E+00 -0.77500E+00  0.00000E+00  0.00000E+00  0.00000E+00    0.26773E+02  0.19308E+02 -0.46080E+02  0.40841E+01  0.28840E+01 -0.60922E+01      982.00
  0.78989E+00  0.70771E+02    0.40000E+00  0.40000E+00 -0.80000E+00  0.00000E+00  0.00000E+00  0.00000E+00    0.26858E+02  0.19203E+02 -0.46062E+02  0.41294E+01  0.28806E+01 -0.61833E+01      982.00
  0.81429E+00  0.70786E+02    0.41250E+00  0.41250E+00 -0.82500E+00  0.00000E+00  0.00000E+00  0.00000E+00    0.26945E+02  0.19097E+02 -0.46042E+02  0.41739E+01  0.28755E+01 -0.62644E+01      982.00
  0.83868E+00  0.70797E+02    0.42500E+00  0.42500E+00 -0.85000E+00  0.00000E+00  0.00000E+00  0.00000E+00    0.27032E+02  0.18988E+02 -0.46020E+02  0.42176E+01  0.28686E+01 -0.63367E+01      982.00
  0.86306E+00  0.70806E+02    0.43750E+00  0.43750E+00 -0.87500E+00  0.00000E+00  0.00000E+00  0.00000E+00    0.27121E+02  0.18877E+02 -0.45998E+02  0.42605E+01  0.28599E+01 -0.64002E+01      982.00
  0.88742E+00  0.70815E+02    0.45000E+00  0.45000E+00 -0.90000E+00  0.00000E+00  0.00000E+00  0.00000E+00    0.27199E+02  0.18784E+02 -0.45983E+02  0.42922E+01  0.28479E+01 -0.64446E+01      982.00
  0.91177E+00  0.70812E+02    0.46250E+00  0.46250E+00 -0.92500E+00  0.00000E+00  0.00000E+00  0.00000E+00    0.27303E+02  0.18648E+02 -0.45950E+02  0.43403E+01  0.28343E+01 -0.65024E+01      982.00
  0.93611E+00  0.70769E+02    0.47500E+00  0.47500E+00 -0.95000E+00  0.00000E+00  0.00000E+00  0.00000E+00    0.27361E+02  0.18546E+02 -0.45907E+02  0.43501E+01  0.28095E+01 -0.65248E+01      982.00
  0.96043E+00  0.70719E+02    0.48750E+00  0.48750E+00 -0.97500E+00  0.00000E+00  0.00000E+00  0.00000E+00    0.27431E+02  0.18423E+02 -0.45854E+02  0.43763E+01  0.27891E+01 -0.65491E+01      982.00
  0.98475E+00  0.70672E+02    0.50000E+00  0.50000E+00 -0.10000E+01  0.00000E+00  0.00000E+00  0.00000E+00    0.27504E+02  0.18301E+02 -0.45804E+02  0.44024E+01  0.27679E+01 -0.65662E+01      982.00
