          Evm          Svm            E11          E22          E33          E23          E13          E12         SDEV11       SDEV22       SDEV33       SDEV23       SDEV13       SDEV12      TEMP
  0.00000E+00  0.57894E+02    0.00000E+00  0.00000E+00  0.00000E+00  0.00000E+00  0.00000E+00  0.00000E+00    0.10373E+02  0.23807E+02 -0.34181E+02  0.49338E+00 -0.29178E+01  0.13680E+02      982.00
  0.22140E-01  0.58222E+02    0.12500E-01  0.12500E-01 -0.25000E-01  0.00000E+00  0.00000E+00  0.00000E+00    0.10357E+02  0.24030E+02 -0.34388E+02  0.89818E+00 -0.34627E+01  0.13546E+02      982.00
  0.44289E-01  0.58601E+02    0.25000E-01  0.25000E-01 -0.50000E-01  0.00000E+00  0.00000E+00  0.00000E+00    0.10353E+02  0.24284E+02 -0.34636E+02  0.12978E+01 -0.39616E+01  0.13380E+02      982.00
  0.66453E-01  0.59000E+02    0.37500E-01  0.37500E-01 -0.75000E-01  0.00000E+00  0.00000E+00  0.00000E+00    0.10326E+02  0.24588E+02 -0.34914E+02  0.17200E+01 -0.44493E+01  0.13134E+02      982.00
  0.88644E-01  0.59374E+02    0.50000E-01  0.50000E-01 -0.10000E+00  0.00000E+00  0.00000E+00  0.00000E+00    0.10275E+02  0.24921E+02 -0.35196E+02  0.21495E+01 -0.49009E+01  0.12795E+02      982.00
  0.11087E+00  0.59690E+02    0.62500E-01  0.62500E-01 -0.12500E+00  0.00000E+00  0.00000E+00  0.00000E+00    0.10214E+02  0.25251E+02 -0.35465E+02  0.25576E+01 -0.52674E+01  0.12390E+02      982.00
  0.13315E+00  0.59973E+02    0.75000E-01  0.75000E-01 -0.15000E+00  0.00000E+00  0.00000E+00  0.00000E+00    0.10160E+02  0.25566E+02 -0.35726E+02  0.29142E+01 -0.55068E+01  0.11981E+02      982.00
  0.15549E+00  0.60255E+02    0.87500E-01  0.87500E-01 -0.17500E+00  0.00000E+00  0.00000E+00  0.00000E+00    0.10108E+02  0.25880E+02 -0.35987E+02  0.32142E+01 -0.56275E+01  0.11607E+02      982.00
  0.17789E+00  0.60551E+02    0.10000E+00  0.10000E+00 -0.20000E+00  0.00000E+00  0.00000E+00  0.00000E+00    0.10055E+02  0.26199E+02 -0.36253E+02  0.34619E+01 -0.56588E+01  0.11281E+02      982.00
  0.20034E+00  0.60864E+02    0.11250E+00  0.11250E+00 -0.22500E+00  0.00000E+00  0.00000E+00  0.00000E+00    0.10001E+02  0.26521E+02 -0.36522E+02  0.36662E+01 -0.56320E+01  0.11003E+02      982.00
  0.22284E+00  0.61187E+02    0.12500E+00  0.12500E+00 -0.25000E+00  0.00000E+00  0.00000E+00  0.00000E+00    0.99541E+01  0.26835E+02 -0.36789E+02  0.38336E+01 -0.55695E+01  0.10767E+02      982.00
  0.24539E+00  0.61522E+02    0.13750E+00  0.13750E+00 -0.27500E+00  0.00000E+00  0.00000E+00  0.00000E+00    0.99108E+01  0.27143E+02 -0.37054E+02  0.39765E+01 -0.54932E+01  0.10567E+02      982.00
  0.26798E+00  0.61863E+02    0.15000E+00  0.15000E+00 -0.30000E+00  0.00000E+00  0.00000E+00  0.00000E+00    0.98780E+01  0.27438E+02 -0.37316E+02  0.40991E+01 -0.54113E+01  0.10398E+02      982.00
  0.29060E+00  0.62206E+02    0.16250E+00  0.16250E+00 -0.32500E+00  0.00000E+00  0.00000E+00  0.00000E+00    0.98637E+01  0.27710E+02 -0.37574E+02  0.42051E+01 -0.53279E+01  0.10263E+02      982.00
  0.31325E+00  0.62548E+02    0.17500E+00  0.17500E+00 -0.35000E+00  0.00000E+00  0.00000E+00  0.00000E+00    0.98581E+01  0.27968E+02 -0.37826E+02  0.43014E+01 -0.52510E+01  0.10146E+02      982.00
  0.33593E+00  0.62885E+02    0.18750E+00  0.18750E+00 -0.37500E+00  0.00000E+00  0.00000E+00  0.00000E+00    0.98662E+01  0.28204E+02 -0.38070E+02  0.43895E+01 -0.51795E+01  0.10051E+02      982.00
  0.35863E+00  0.63208E+02    0.20000E+00  0.20000E+00 -0.40000E+00  0.00000E+00  0.00000E+00  0.00000E+00    0.98911E+01  0.28413E+02 -0.38304E+02  0.44666E+01 -0.51106E+01  0.99740E+01      982.00
  0.38135E+00  0.63535E+02    0.21250E+00  0.21250E+00 -0.42500E+00  0.00000E+00  0.00000E+00  0.00000E+00    0.99337E+01  0.28603E+02 -0.38537E+02  0.45417E+01 -0.50499E+01  0.99227E+01      982.00
  0.40410E+00  0.63836E+02    0.22500E+00  0.22500E+00 -0.45000E+00  0.00000E+00  0.00000E+00  0.00000E+00    0.99812E+01  0.28771E+02 -0.38752E+02  0.46145E+01 -0.49954E+01  0.98779E+01      982.00
  0.42686E+00  0.64146E+02    0.23750E+00  0.23750E+00 -0.47500E+00  0.00000E+00  0.00000E+00  0.00000E+00    0.10047E+02  0.28923E+02 -0.38969E+02  0.46806E+01 -0.49458E+01  0.98581E+01      982.00
  0.44964E+00  0.64430E+02    0.25000E+00  0.25000E+00 -0.50000E+00  0.00000E+00  0.00000E+00  0.00000E+00    0.10122E+02  0.29048E+02 -0.39170E+02  0.47472E+01 -0.48990E+01  0.98453E+01      982.00
  0.47244E+00  0.64714E+02    0.26250E+00  0.26250E+00 -0.52500E+00  0.00000E+00  0.00000E+00  0.00000E+00    0.10216E+02  0.29154E+02 -0.39371E+02  0.48119E+01 -0.48531E+01  0.98503E+01      982.00
  0.49526E+00  0.64974E+02    0.27500E+00  0.27500E+00 -0.55000E+00  0.00000E+00  0.00000E+00  0.00000E+00    0.10313E+02  0.29242E+02 -0.39555E+02  0.48582E+01 -0.48149E+01  0.98693E+01      982.00
  0.51809E+00  0.65215E+02    0.28750E+00  0.28750E+00 -0.57500E+00  0.00000E+00  0.00000E+00  0.00000E+00    0.10403E+02  0.29321E+02 -0.39724E+02  0.48872E+01 -0.47863E+01  0.98961E+01      982.00
  0.54093E+00  0.65440E+02    0.30000E+00  0.30000E+00 -0.60000E+00  0.00000E+00  0.00000E+00  0.00000E+00    0.10511E+02  0.29373E+02 -0.39884E+02  0.49173E+01 -0.47576E+01  0.99333E+01      982.00
  0.56378E+00  0.65655E+02    0.31250E+00  0.31250E+00 -0.62500E+00  0.00000E+00  0.00000E+00  0.00000E+00    0.10623E+02  0.29413E+02 -0.40036E+02  0.49386E+01 -0.47334E+01  0.99824E+01      982.00
  0.58665E+00  0.65861E+02    0.32500E+00  0.32500E+00 -0.65000E+00  0.00000E+00  0.00000E+00  0.00000E+00    0.10730E+02  0.29450E+02 -0.40180E+02  0.49479E+01 -0.47171E+01  0.10035E+02      982.00
  0.60953E+00  0.66045E+02    0.33750E+00  0.33750E+00 -0.67500E+00  0.00000E+00  0.00000E+00  0.00000E+00    0.10853E+02  0.29459E+02 -0.40312E+02  0.49498E+01 -0.47034E+01  0.10101E+02      982.00
  0.63242E+00  0.66216E+02    0.35000E+00  0.35000E+00 -0.70000E+00  0.00000E+00  0.00000E+00  0.00000E+00    0.10981E+02  0.29456E+02 -0.40437E+02  0.49379E+01 -0.46922E+01  0.10171E+02      982.00
  0.65532E+00  0.66373E+02    0.36250E+00  0.36250E+00 -0.72500E+00  0.00000E+00  0.00000E+00  0.00000E+00    0.11116E+02  0.29435E+02 -0.40551E+02  0.49194E+01 -0.46887E+01  0.10251E+02      982.00
  0.67823E+00  0.66518E+02    0.37500E+00  0.37500E+00 -0.75000E+00  0.00000E+00  0.00000E+00  0.00000E+00    0.11258E+02  0.29401E+02 -0.40658E+02  0.48909E+01 -0.46898E+01  0.10337E+02      982.00
  0.70115E+00  0.66652E+02    0.38750E+00  0.38750E+00 -0.77500E+00  0.00000E+00  0.00000E+00  0.00000E+00    0.11406E+02  0.29353E+02 -0.40759E+02  0.48533E+01 -0.46949E+01  0.10428E+02      982.00
  0.72408E+00  0.66776E+02    0.40000E+00  0.40000E+00 -0.80000E+00  0.00000E+00  0.00000E+00  0.00000E+00    0.11559E+02  0.29295E+02 -0.40854E+02  0.48080E+01 -0.47030E+01  0.10521E+02      982.00
  0.74702E+00  0.66891E+02    0.41250E+00  0.41250E+00 -0.82500E+00  0.00000E+00  0.00000E+00  0.00000E+00    0.11718E+02  0.29226E+02 -0.40944E+02  0.47566E+01 -0.47135E+01  0.10616E+02      982.00
  0.76998E+00  0.66998E+02    0.42500E+00  0.42500E+00 -0.85000E+00  0.00000E+00  0.00000E+00  0.00000E+00    0.11880E+02  0.29149E+02 -0.41029E+02  0.47007E+01 -0.47254E+01  0.10711E+02      982.00
  0.79294E+00  0.67099E+02    0.43750E+00  0.43750E+00 -0.87500E+00  0.00000E+00  0.00000E+00  0.00000E+00    0.12046E+02  0.29065E+02 -0.41111E+02  0.46419E+01 -0.47378E+01  0.10805E+02      982.00
  0.81592E+00  0.67193E+02    0.45000E+00  0.45000E+00 -0.90000E+00  0.00000E+00  0.00000E+00  0.00000E+00    0.12213E+02  0.28976E+02 -0.41189E+02  0.45817E+01 -0.47501E+01  0.10896E+02      982.00
  0.83891E+00  0.67284E+02    0.46250E+00  0.46250E+00 -0.92500E+00  0.00000E+00  0.00000E+00  0.00000E+00    0.12382E+02  0.28886E+02 -0.41268E+02  0.45306E+01 -0.47616E+01  0.10977E+02      982.00
  0.86191E+00  0.67366E+02    0.47500E+00  0.47500E+00 -0.95000E+00  0.00000E+00  0.00000E+00  0.00000E+00    0.12551E+02  0.28789E+02 -0.41340E+02  0.44712E+01 -0.47717E+01  0.11060E+02      982.00
  0.88492E+00  0.67444E+02    0.48750E+00  0.48750E+00 -0.97500E+00  0.00000E+00  0.00000E+00  0.00000E+00    0.12719E+02  0.28691E+02 -0.41409E+02  0.44127E+01 -0.47805E+01  0.11139E+02      982.00
  0.90794E+00  0.67518E+02    0.50000E+00  0.50000E+00 -0.10000E+01  0.00000E+00  0.00000E+00  0.00000E+00    0.12884E+02  0.28593E+02 -0.41476E+02  0.43561E+01 -0.47878E+01  0.11213E+02      982.00
