          Evm          Svm            E11          E22          E33          E23          E13          E12         SDEV11       SDEV22       SDEV33       SDEV23       SDEV13       SDEV12      TEMP
  0.00000E+00  0.60404E+02    0.00000E+00  0.00000E+00  0.00000E+00  0.00000E+00  0.00000E+00  0.00000E+00    0.20422E+02  0.16908E+02 -0.37330E+02 -0.26890E+01  0.39665E+01  0.12041E+02      982.00
  0.23175E-01  0.60404E+02    0.12500E-01  0.12500E-01 -0.25000E-01  0.00000E+00  0.00000E+00  0.00000E+00    0.20148E+02  0.17161E+02 -0.37309E+02 -0.25962E+01  0.36519E+01  0.12245E+02      982.00
  0.46337E-01  0.60467E+02    0.25000E-01  0.25000E-01 -0.50000E-01  0.00000E+00  0.00000E+00  0.00000E+00    0.19952E+02  0.17364E+02 -0.37316E+02 -0.25038E+01  0.34009E+01  0.12445E+02      982.00
  0.69480E-01  0.60594E+02    0.37500E-01  0.37500E-01 -0.75000E-01  0.00000E+00  0.00000E+00  0.00000E+00    0.19806E+02  0.17547E+02 -0.37353E+02 -0.24337E+01  0.31981E+01  0.12650E+02      982.00
  0.92596E-01  0.60791E+02    0.50000E-01  0.50000E-01 -0.10000E+00  0.00000E+00  0.00000E+00  0.00000E+00    0.19693E+02  0.17728E+02 -0.37421E+02 -0.23955E+01  0.30370E+01  0.12870E+02      982.00
  0.11568E+00  0.61050E+02    0.62500E-01  0.62500E-01 -0.12500E+00  0.00000E+00  0.00000E+00  0.00000E+00    0.19620E+02  0.17897E+02 -0.37517E+02 -0.23841E+01  0.29220E+01  0.13106E+02      982.00
  0.13873E+00  0.61356E+02    0.75000E-01  0.75000E-01 -0.15000E+00  0.00000E+00  0.00000E+00  0.00000E+00    0.19565E+02  0.18064E+02 -0.37630E+02 -0.24098E+01  0.28495E+01  0.13355E+02      982.00
  0.16172E+00  0.61669E+02    0.87500E-01  0.87500E-01 -0.17500E+00  0.00000E+00  0.00000E+00  0.00000E+00    0.19529E+02  0.18211E+02 -0.37740E+02 -0.24674E+01  0.28268E+01  0.13600E+02      982.00
  0.18467E+00  0.61942E+02    0.10000E+00  0.10000E+00 -0.20000E+00  0.00000E+00  0.00000E+00  0.00000E+00    0.19489E+02  0.18340E+02 -0.37829E+02 -0.25461E+01  0.28302E+01  0.13815E+02      982.00
  0.20757E+00  0.62180E+02    0.11250E+00  0.11250E+00 -0.22500E+00  0.00000E+00  0.00000E+00  0.00000E+00    0.19456E+02  0.18450E+02 -0.37907E+02 -0.26092E+01  0.28279E+01  0.14001E+02      982.00
  0.23044E+00  0.62410E+02    0.12500E+00  0.12500E+00 -0.25000E+00  0.00000E+00  0.00000E+00  0.00000E+00    0.19442E+02  0.18546E+02 -0.37988E+02 -0.26346E+01  0.28044E+01  0.14178E+02      982.00
  0.25326E+00  0.62640E+02    0.13750E+00  0.13750E+00 -0.27500E+00  0.00000E+00  0.00000E+00  0.00000E+00    0.19432E+02  0.18642E+02 -0.38075E+02 -0.26288E+01  0.27522E+01  0.14354E+02      982.00
  0.27606E+00  0.62883E+02    0.15000E+00  0.15000E+00 -0.30000E+00  0.00000E+00  0.00000E+00  0.00000E+00    0.19436E+02  0.18733E+02 -0.38169E+02 -0.25934E+01  0.26810E+01  0.14540E+02      982.00
  0.29882E+00  0.63135E+02    0.16250E+00  0.16250E+00 -0.32500E+00  0.00000E+00  0.00000E+00  0.00000E+00    0.19443E+02  0.18824E+02 -0.38267E+02 -0.25390E+01  0.25938E+01  0.14735E+02      982.00
  0.32155E+00  0.63385E+02    0.17500E+00  0.17500E+00 -0.35000E+00  0.00000E+00  0.00000E+00  0.00000E+00    0.19453E+02  0.18908E+02 -0.38361E+02 -0.24731E+01  0.25005E+01  0.14936E+02      982.00
  0.34424E+00  0.63636E+02    0.18750E+00  0.18750E+00 -0.37500E+00  0.00000E+00  0.00000E+00  0.00000E+00    0.19464E+02  0.18989E+02 -0.38452E+02 -0.24010E+01  0.24040E+01  0.15143E+02      982.00
  0.36690E+00  0.63881E+02    0.20000E+00  0.20000E+00 -0.40000E+00  0.00000E+00  0.00000E+00  0.00000E+00    0.19473E+02  0.19065E+02 -0.38538E+02 -0.23277E+01  0.23084E+01  0.15349E+02      982.00
  0.38952E+00  0.64123E+02    0.21250E+00  0.21250E+00 -0.42500E+00  0.00000E+00  0.00000E+00  0.00000E+00    0.19481E+02  0.19139E+02 -0.38620E+02 -0.22549E+01  0.22141E+01  0.15554E+02      982.00
  0.41211E+00  0.64355E+02    0.22500E+00  0.22500E+00 -0.45000E+00  0.00000E+00  0.00000E+00  0.00000E+00    0.19488E+02  0.19207E+02 -0.38695E+02 -0.21870E+01  0.21272E+01  0.15755E+02      982.00
  0.43466E+00  0.64579E+02    0.23750E+00  0.23750E+00 -0.47500E+00  0.00000E+00  0.00000E+00  0.00000E+00    0.19488E+02  0.19278E+02 -0.38766E+02 -0.21245E+01  0.20421E+01  0.15949E+02      982.00
  0.45717E+00  0.64792E+02    0.25000E+00  0.25000E+00 -0.50000E+00  0.00000E+00  0.00000E+00  0.00000E+00    0.19494E+02  0.19337E+02 -0.38831E+02 -0.20680E+01  0.19692E+01  0.16134E+02      982.00
  0.47964E+00  0.64991E+02    0.26250E+00  0.26250E+00 -0.52500E+00  0.00000E+00  0.00000E+00  0.00000E+00    0.19500E+02  0.19390E+02 -0.38890E+02 -0.20209E+01  0.19082E+01  0.16306E+02      982.00
  0.50208E+00  0.65185E+02    0.27500E+00  0.27500E+00 -0.55000E+00  0.00000E+00  0.00000E+00  0.00000E+00    0.19501E+02  0.19449E+02 -0.38949E+02 -0.19754E+01  0.18442E+01  0.16471E+02      982.00
  0.52449E+00  0.65365E+02    0.28750E+00  0.28750E+00 -0.57500E+00  0.00000E+00  0.00000E+00  0.00000E+00    0.19506E+02  0.19495E+02 -0.39001E+02 -0.19374E+01  0.17932E+01  0.16625E+02      982.00
  0.54686E+00  0.65533E+02    0.30000E+00  0.30000E+00 -0.60000E+00  0.00000E+00  0.00000E+00  0.00000E+00    0.19512E+02  0.19537E+02 -0.39050E+02 -0.19048E+01  0.17490E+01  0.16769E+02      982.00
  0.56921E+00  0.65690E+02    0.31250E+00  0.31250E+00 -0.62500E+00  0.00000E+00  0.00000E+00  0.00000E+00    0.19519E+02  0.19576E+02 -0.39094E+02 -0.18774E+01  0.17107E+01  0.16901E+02      982.00
  0.59153E+00  0.65826E+02    0.32500E+00  0.32500E+00 -0.65000E+00  0.00000E+00  0.00000E+00  0.00000E+00    0.19519E+02  0.19615E+02 -0.39134E+02 -0.18557E+01  0.16745E+01  0.17015E+02      982.00
  0.61382E+00  0.65964E+02    0.33750E+00  0.33750E+00 -0.67500E+00  0.00000E+00  0.00000E+00  0.00000E+00    0.19527E+02  0.19647E+02 -0.39174E+02 -0.18370E+01  0.16462E+01  0.17129E+02      982.00
  0.63609E+00  0.66102E+02    0.35000E+00  0.35000E+00 -0.70000E+00  0.00000E+00  0.00000E+00  0.00000E+00    0.19537E+02  0.19675E+02 -0.39212E+02 -0.18202E+01  0.16216E+01  0.17243E+02      982.00
  0.65834E+00  0.66212E+02    0.36250E+00  0.36250E+00 -0.72500E+00  0.00000E+00  0.00000E+00  0.00000E+00    0.19551E+02  0.19693E+02 -0.39244E+02 -0.18135E+01  0.16109E+01  0.17331E+02      982.00
  0.68056E+00  0.66306E+02    0.37500E+00  0.37500E+00 -0.75000E+00  0.00000E+00  0.00000E+00  0.00000E+00    0.19555E+02  0.19718E+02 -0.39274E+02 -0.18025E+01  0.15887E+01  0.17404E+02      982.00
  0.70277E+00  0.66414E+02    0.38750E+00  0.38750E+00 -0.77500E+00  0.00000E+00  0.00000E+00  0.00000E+00    0.19566E+02  0.19739E+02 -0.39306E+02 -0.17955E+01  0.15738E+01  0.17488E+02      982.00
  0.72497E+00  0.66529E+02    0.40000E+00  0.40000E+00 -0.80000E+00  0.00000E+00  0.00000E+00  0.00000E+00    0.19573E+02  0.19768E+02 -0.39341E+02 -0.17820E+01  0.15443E+01  0.17579E+02      982.00
  0.74714E+00  0.66619E+02    0.41250E+00  0.41250E+00 -0.82500E+00  0.00000E+00  0.00000E+00  0.00000E+00    0.19584E+02  0.19784E+02 -0.39368E+02 -0.17809E+01  0.15344E+01  0.17647E+02      982.00
  0.76930E+00  0.66701E+02    0.42500E+00  0.42500E+00 -0.85000E+00  0.00000E+00  0.00000E+00  0.00000E+00    0.19597E+02  0.19796E+02 -0.39393E+02 -0.17809E+01  0.15277E+01  0.17710E+02      982.00
  0.79145E+00  0.66812E+02    0.43750E+00  0.43750E+00 -0.87500E+00  0.00000E+00  0.00000E+00  0.00000E+00    0.19613E+02  0.19810E+02 -0.39423E+02 -0.17813E+01  0.15165E+01  0.17801E+02      982.00
  0.81358E+00  0.66882E+02    0.45000E+00  0.45000E+00 -0.90000E+00  0.00000E+00  0.00000E+00  0.00000E+00    0.19626E+02  0.19818E+02 -0.39444E+02 -0.17841E+01  0.15112E+01  0.17853E+02      982.00
  0.83569E+00  0.66946E+02    0.46250E+00  0.46250E+00 -0.92500E+00  0.00000E+00  0.00000E+00  0.00000E+00    0.19641E+02  0.19823E+02 -0.39464E+02 -0.17880E+01  0.15091E+01  0.17900E+02      982.00
  0.85780E+00  0.67007E+02    0.47500E+00  0.47500E+00 -0.95000E+00  0.00000E+00  0.00000E+00  0.00000E+00    0.19657E+02  0.19825E+02 -0.39483E+02 -0.17924E+01  0.15083E+01  0.17944E+02      982.00
  0.87990E+00  0.67063E+02    0.48750E+00  0.48750E+00 -0.97500E+00  0.00000E+00  0.00000E+00  0.00000E+00    0.19674E+02  0.19827E+02 -0.39500E+02 -0.17971E+01  0.15081E+01  0.17985E+02      982.00
  0.90198E+00  0.67117E+02    0.50000E+00  0.50000E+00 -0.10000E+01  0.00000E+00  0.00000E+00  0.00000E+00    0.19691E+02  0.19827E+02 -0.39517E+02 -0.18021E+01  0.15084E+01  0.18022E+02      982.00
