          Evm          Svm            E11          E22          E33          E23          E13          E12         SDEV11       SDEV22       SDEV33       SDEV23       SDEV13       SDEV12      TEMP
  0.00000E+00  0.62670E+02    0.00000E+00  0.00000E+00  0.00000E+00  0.00000E+00  0.00000E+00  0.00000E+00    0.18559E+02  0.22143E+02 -0.40702E+02  0.43740E+01 -0.18441E+01  0.64002E+01      982.00
  0.24355E-01  0.62977E+02    0.12500E-01  0.12500E-01 -0.25000E-01  0.00000E+00  0.00000E+00  0.00000E+00    0.19707E+02  0.21172E+02 -0.40879E+02  0.42022E+01 -0.21565E+01  0.67736E+01      982.00
  0.48696E-01  0.63229E+02    0.25000E-01  0.25000E-01 -0.50000E-01  0.00000E+00  0.00000E+00  0.00000E+00    0.20638E+02  0.20370E+02 -0.41008E+02  0.40174E+01 -0.23275E+01  0.70584E+01      982.00
  0.73017E-01  0.63430E+02    0.37500E-01  0.37500E-01 -0.75000E-01  0.00000E+00  0.00000E+00  0.00000E+00    0.21335E+02  0.19767E+02 -0.41102E+02  0.38302E+01 -0.23718E+01  0.72905E+01      982.00
  0.97317E-01  0.63607E+02    0.50000E-01  0.50000E-01 -0.10000E+00  0.00000E+00  0.00000E+00  0.00000E+00    0.21852E+02  0.19329E+02 -0.41181E+02  0.36433E+01 -0.23359E+01  0.75072E+01      982.00
  0.12160E+00  0.63782E+02    0.62500E-01  0.62500E-01 -0.12500E+00  0.00000E+00  0.00000E+00  0.00000E+00    0.22237E+02  0.19022E+02 -0.41259E+02  0.34600E+01 -0.22547E+01  0.77269E+01      982.00
  0.14585E+00  0.63973E+02    0.75000E-01  0.75000E-01 -0.15000E+00  0.00000E+00  0.00000E+00  0.00000E+00    0.22527E+02  0.18817E+02 -0.41344E+02  0.32834E+01 -0.21512E+01  0.79562E+01      982.00
  0.17009E+00  0.64185E+02    0.87500E-01  0.87500E-01 -0.17500E+00  0.00000E+00  0.00000E+00  0.00000E+00    0.22759E+02  0.18683E+02 -0.41442E+02  0.31121E+01 -0.20447E+01  0.81949E+01      982.00
  0.19430E+00  0.64421E+02    0.10000E+00  0.10000E+00 -0.20000E+00  0.00000E+00  0.00000E+00  0.00000E+00    0.22950E+02  0.18603E+02 -0.41553E+02  0.29472E+01 -0.19436E+01  0.84391E+01      982.00
  0.21849E+00  0.64679E+02    0.11250E+00  0.11250E+00 -0.22500E+00  0.00000E+00  0.00000E+00  0.00000E+00    0.23114E+02  0.18562E+02 -0.41676E+02  0.27890E+01 -0.18525E+01  0.86847E+01      982.00
  0.24265E+00  0.64953E+02    0.12500E+00  0.12500E+00 -0.25000E+00  0.00000E+00  0.00000E+00  0.00000E+00    0.23257E+02  0.18552E+02 -0.41808E+02  0.26380E+01 -0.17729E+01  0.89292E+01      982.00
  0.26679E+00  0.65240E+02    0.13750E+00  0.13750E+00 -0.27500E+00  0.00000E+00  0.00000E+00  0.00000E+00    0.23383E+02  0.18564E+02 -0.41948E+02  0.24937E+01 -0.17043E+01  0.91711E+01      982.00
  0.29090E+00  0.65536E+02    0.15000E+00  0.15000E+00 -0.30000E+00  0.00000E+00  0.00000E+00  0.00000E+00    0.23496E+02  0.18597E+02 -0.42093E+02  0.23551E+01 -0.16445E+01  0.94102E+01      982.00
  0.31499E+00  0.65816E+02    0.16250E+00  0.16250E+00 -0.32500E+00  0.00000E+00  0.00000E+00  0.00000E+00    0.23582E+02  0.18652E+02 -0.42234E+02  0.22304E+01 -0.15910E+01  0.96207E+01      982.00
  0.33905E+00  0.66114E+02    0.17500E+00  0.17500E+00 -0.35000E+00  0.00000E+00  0.00000E+00  0.00000E+00    0.23669E+02  0.18713E+02 -0.42382E+02  0.21049E+01 -0.15488E+01  0.98423E+01      982.00
  0.36309E+00  0.66403E+02    0.18750E+00  0.18750E+00 -0.37500E+00  0.00000E+00  0.00000E+00  0.00000E+00    0.23739E+02  0.18793E+02 -0.42531E+02  0.19898E+01 -0.15074E+01  0.10038E+02      982.00
  0.38711E+00  0.66684E+02    0.20000E+00  0.20000E+00 -0.40000E+00  0.00000E+00  0.00000E+00  0.00000E+00    0.23798E+02  0.18880E+02 -0.42678E+02  0.18808E+01 -0.14713E+01  0.10221E+02      982.00
  0.41111E+00  0.66956E+02    0.21250E+00  0.21250E+00 -0.42500E+00  0.00000E+00  0.00000E+00  0.00000E+00    0.23849E+02  0.18972E+02 -0.42821E+02  0.17771E+01 -0.14397E+01  0.10391E+02      982.00
  0.43509E+00  0.67216E+02    0.22500E+00  0.22500E+00 -0.45000E+00  0.00000E+00  0.00000E+00  0.00000E+00    0.23893E+02  0.19067E+02 -0.42961E+02  0.16823E+01 -0.14075E+01  0.10542E+02      982.00
  0.45906E+00  0.67464E+02    0.23750E+00  0.23750E+00 -0.47500E+00  0.00000E+00  0.00000E+00  0.00000E+00    0.23930E+02  0.19162E+02 -0.43093E+02  0.15878E+01 -0.13827E+01  0.10689E+02      982.00
  0.48301E+00  0.67698E+02    0.25000E+00  0.25000E+00 -0.50000E+00  0.00000E+00  0.00000E+00  0.00000E+00    0.23960E+02  0.19259E+02 -0.43219E+02  0.14975E+01 -0.13594E+01  0.10824E+02      982.00
  0.50695E+00  0.67919E+02    0.26250E+00  0.26250E+00 -0.52500E+00  0.00000E+00  0.00000E+00  0.00000E+00    0.23982E+02  0.19357E+02 -0.43339E+02  0.14112E+01 -0.13369E+01  0.10947E+02      982.00
  0.53088E+00  0.68126E+02    0.27500E+00  0.27500E+00 -0.55000E+00  0.00000E+00  0.00000E+00  0.00000E+00    0.23999E+02  0.19453E+02 -0.43452E+02  0.13285E+01 -0.13148E+01  0.11060E+02      982.00
  0.55480E+00  0.68320E+02    0.28750E+00  0.28750E+00 -0.57500E+00  0.00000E+00  0.00000E+00  0.00000E+00    0.24011E+02  0.19549E+02 -0.43560E+02  0.12490E+01 -0.12927E+01  0.11162E+02      982.00
  0.57871E+00  0.68501E+02    0.30000E+00  0.30000E+00 -0.60000E+00  0.00000E+00  0.00000E+00  0.00000E+00    0.24018E+02  0.19643E+02 -0.43661E+02  0.11724E+01 -0.12700E+01  0.11254E+02      982.00
  0.60261E+00  0.68666E+02    0.31250E+00  0.31250E+00 -0.62500E+00  0.00000E+00  0.00000E+00  0.00000E+00    0.24015E+02  0.19740E+02 -0.43755E+02  0.10953E+01 -0.12479E+01  0.11336E+02      982.00
  0.62651E+00  0.68823E+02    0.32500E+00  0.32500E+00 -0.65000E+00  0.00000E+00  0.00000E+00  0.00000E+00    0.24014E+02  0.19830E+02 -0.43845E+02  0.10235E+01 -0.12230E+01  0.11410E+02      982.00
  0.65040E+00  0.68960E+02    0.33750E+00  0.33750E+00 -0.67500E+00  0.00000E+00  0.00000E+00  0.00000E+00    0.24010E+02  0.19914E+02 -0.43924E+02  0.95887E+00 -0.11996E+01  0.11473E+02      982.00
  0.67428E+00  0.69097E+02    0.35000E+00  0.35000E+00 -0.70000E+00  0.00000E+00  0.00000E+00  0.00000E+00    0.24007E+02  0.19998E+02 -0.44004E+02  0.89052E+00 -0.11724E+01  0.11531E+02      982.00
  0.69816E+00  0.69223E+02    0.36250E+00  0.36250E+00 -0.72500E+00  0.00000E+00  0.00000E+00  0.00000E+00    0.24002E+02  0.20078E+02 -0.44080E+02  0.82347E+00 -0.11439E+01  0.11583E+02      982.00
  0.72204E+00  0.69331E+02    0.37500E+00  0.37500E+00 -0.75000E+00  0.00000E+00  0.00000E+00  0.00000E+00    0.23984E+02  0.20162E+02 -0.44147E+02  0.75151E+00 -0.11135E+01  0.11624E+02      982.00
  0.74592E+00  0.69436E+02    0.38750E+00  0.38750E+00 -0.77500E+00  0.00000E+00  0.00000E+00  0.00000E+00    0.23974E+02  0.20237E+02 -0.44211E+02  0.68572E+00 -0.10816E+01  0.11662E+02      982.00
  0.76980E+00  0.69536E+02    0.40000E+00  0.40000E+00 -0.80000E+00  0.00000E+00  0.00000E+00  0.00000E+00    0.23965E+02  0.20309E+02 -0.44274E+02  0.62075E+00 -0.10476E+01  0.11696E+02      982.00
  0.79367E+00  0.69638E+02    0.41250E+00  0.41250E+00 -0.82500E+00  0.00000E+00  0.00000E+00  0.00000E+00    0.23957E+02  0.20383E+02 -0.44340E+02  0.54727E+00 -0.10052E+01  0.11724E+02      982.00
  0.81755E+00  0.69722E+02    0.42500E+00  0.42500E+00 -0.85000E+00  0.00000E+00  0.00000E+00  0.00000E+00    0.23946E+02  0.20449E+02 -0.44395E+02  0.48235E+00 -0.96729E+00  0.11746E+02      982.00
  0.84143E+00  0.69800E+02    0.43750E+00  0.43750E+00 -0.87500E+00  0.00000E+00  0.00000E+00  0.00000E+00    0.23935E+02  0.20512E+02 -0.44446E+02  0.41764E+00 -0.92751E+00  0.11765E+02      982.00
  0.86531E+00  0.69871E+02    0.45000E+00  0.45000E+00 -0.90000E+00  0.00000E+00  0.00000E+00  0.00000E+00    0.23923E+02  0.20571E+02 -0.44495E+02  0.35268E+00 -0.88576E+00  0.11781E+02      982.00
  0.88919E+00  0.69937E+02    0.46250E+00  0.46250E+00 -0.92500E+00  0.00000E+00  0.00000E+00  0.00000E+00    0.23912E+02  0.20628E+02 -0.44539E+02  0.28736E+00 -0.84201E+00  0.11793E+02      982.00
  0.91307E+00  0.69997E+02    0.47500E+00  0.47500E+00 -0.95000E+00  0.00000E+00  0.00000E+00  0.00000E+00    0.23900E+02  0.20682E+02 -0.44581E+02  0.22155E+00 -0.79627E+00  0.11802E+02      982.00
  0.93696E+00  0.70007E+02    0.48750E+00  0.48750E+00 -0.97500E+00  0.00000E+00  0.00000E+00  0.00000E+00    0.23874E+02  0.20720E+02 -0.44594E+02  0.15978E+00 -0.74682E+00  0.11795E+02      982.00
  0.96084E+00  0.70016E+02    0.50000E+00  0.50000E+00 -0.10000E+01  0.00000E+00  0.00000E+00  0.00000E+00    0.23850E+02  0.20756E+02 -0.44606E+02  0.96261E-01 -0.69593E+00  0.11787E+02      982.00
