          Evm          Svm            E11          E22          E33          E23          E13          E12         SDEV11       SDEV22       SDEV33       SDEV23       SDEV13       SDEV12      TEMP
  0.00000E+00  0.60230E+02    0.00000E+00  0.00000E+00  0.00000E+00  0.00000E+00  0.00000E+00  0.00000E+00    0.22977E+02  0.15436E+02 -0.38412E+02 -0.31687E+01  0.53875E+01  0.70223E+01      982.00
  0.23916E-01  0.60446E+02    0.12500E-01  0.12500E-01 -0.25000E-01  0.00000E+00  0.00000E+00  0.00000E+00    0.22304E+02  0.16210E+02 -0.38514E+02 -0.34461E+01  0.53833E+01  0.74371E+01      982.00
  0.47809E-01  0.60713E+02    0.25000E-01  0.25000E-01 -0.50000E-01  0.00000E+00  0.00000E+00  0.00000E+00    0.21611E+02  0.17015E+02 -0.38626E+02 -0.37251E+01  0.53474E+01  0.78709E+01      982.00
  0.71667E-01  0.60957E+02    0.37500E-01  0.37500E-01 -0.75000E-01  0.00000E+00  0.00000E+00  0.00000E+00    0.20963E+02  0.17750E+02 -0.38713E+02 -0.39510E+01  0.52680E+01  0.82820E+01      982.00
  0.95483E-01  0.61164E+02    0.50000E-01  0.50000E-01 -0.10000E+00  0.00000E+00  0.00000E+00  0.00000E+00    0.20453E+02  0.18328E+02 -0.38781E+02 -0.40588E+01  0.51460E+01  0.86571E+01      982.00
  0.11926E+00  0.61351E+02    0.62500E-01  0.62500E-01 -0.12500E+00  0.00000E+00  0.00000E+00  0.00000E+00    0.20099E+02  0.18742E+02 -0.38841E+02 -0.40518E+01  0.49897E+01  0.90222E+01      982.00
  0.14300E+00  0.61534E+02    0.75000E-01  0.75000E-01 -0.15000E+00  0.00000E+00  0.00000E+00  0.00000E+00    0.19870E+02  0.19028E+02 -0.38898E+02 -0.39640E+01  0.48081E+01  0.93989E+01      982.00
  0.16671E+00  0.61721E+02    0.87500E-01  0.87500E-01 -0.17500E+00  0.00000E+00  0.00000E+00  0.00000E+00    0.19744E+02  0.19211E+02 -0.38955E+02 -0.38194E+01  0.46089E+01  0.97892E+01      982.00
  0.19037E+00  0.61920E+02    0.10000E+00  0.10000E+00 -0.20000E+00  0.00000E+00  0.00000E+00  0.00000E+00    0.19696E+02  0.19317E+02 -0.39013E+02 -0.36365E+01  0.43928E+01  0.10196E+02      982.00
  0.21400E+00  0.62133E+02    0.11250E+00  0.11250E+00 -0.22500E+00  0.00000E+00  0.00000E+00  0.00000E+00    0.19715E+02  0.19355E+02 -0.39070E+02 -0.34309E+01  0.41905E+01  0.10611E+02      982.00
  0.23758E+00  0.62361E+02    0.12500E+00  0.12500E+00 -0.25000E+00  0.00000E+00  0.00000E+00  0.00000E+00    0.19763E+02  0.19365E+02 -0.39128E+02 -0.32222E+01  0.39949E+01  0.11032E+02      982.00
  0.26111E+00  0.62606E+02    0.13750E+00  0.13750E+00 -0.27500E+00  0.00000E+00  0.00000E+00  0.00000E+00    0.19820E+02  0.19367E+02 -0.39186E+02 -0.30131E+01  0.37944E+01  0.11459E+02      982.00
  0.28458E+00  0.62856E+02    0.15000E+00  0.15000E+00 -0.30000E+00  0.00000E+00  0.00000E+00  0.00000E+00    0.19882E+02  0.19362E+02 -0.39244E+02 -0.28027E+01  0.35889E+01  0.11879E+02      982.00
  0.30800E+00  0.63104E+02    0.16250E+00  0.16250E+00 -0.32500E+00  0.00000E+00  0.00000E+00  0.00000E+00    0.19943E+02  0.19356E+02 -0.39298E+02 -0.25900E+01  0.33796E+01  0.12283E+02      982.00
  0.33135E+00  0.63354E+02    0.17500E+00  0.17500E+00 -0.35000E+00  0.00000E+00  0.00000E+00  0.00000E+00    0.19984E+02  0.19367E+02 -0.39351E+02 -0.23814E+01  0.31736E+01  0.12676E+02      982.00
  0.35464E+00  0.63593E+02    0.18750E+00  0.18750E+00 -0.37500E+00  0.00000E+00  0.00000E+00  0.00000E+00    0.20003E+02  0.19397E+02 -0.39400E+02 -0.21717E+01  0.29592E+01  0.13045E+02      982.00
  0.37788E+00  0.63827E+02    0.20000E+00  0.20000E+00 -0.40000E+00  0.00000E+00  0.00000E+00  0.00000E+00    0.19991E+02  0.19455E+02 -0.39447E+02 -0.19723E+01  0.27524E+01  0.13394E+02      982.00
  0.40105E+00  0.64050E+02    0.21250E+00  0.21250E+00 -0.42500E+00  0.00000E+00  0.00000E+00  0.00000E+00    0.19951E+02  0.19539E+02 -0.39490E+02 -0.17828E+01  0.25487E+01  0.13717E+02      982.00
  0.42417E+00  0.64270E+02    0.22500E+00  0.22500E+00 -0.45000E+00  0.00000E+00  0.00000E+00  0.00000E+00    0.19891E+02  0.19640E+02 -0.39531E+02 -0.16096E+01  0.23610E+01  0.14023E+02      982.00
  0.44724E+00  0.64477E+02    0.23750E+00  0.23750E+00 -0.47500E+00  0.00000E+00  0.00000E+00  0.00000E+00    0.19816E+02  0.19753E+02 -0.39569E+02 -0.14515E+01  0.21828E+01  0.14303E+02      982.00
  0.47025E+00  0.64668E+02    0.25000E+00  0.25000E+00 -0.50000E+00  0.00000E+00  0.00000E+00  0.00000E+00    0.19720E+02  0.19884E+02 -0.39604E+02 -0.13164E+01  0.20184E+01  0.14554E+02      982.00
  0.49322E+00  0.64850E+02    0.26250E+00  0.26250E+00 -0.52500E+00  0.00000E+00  0.00000E+00  0.00000E+00    0.19614E+02  0.20021E+02 -0.39635E+02 -0.12062E+01  0.18753E+01  0.14786E+02      982.00
  0.51614E+00  0.65026E+02    0.27500E+00  0.27500E+00 -0.55000E+00  0.00000E+00  0.00000E+00  0.00000E+00    0.19505E+02  0.20160E+02 -0.39664E+02 -0.11208E+01  0.17556E+01  0.15003E+02      982.00
  0.53901E+00  0.65192E+02    0.28750E+00  0.28750E+00 -0.57500E+00  0.00000E+00  0.00000E+00  0.00000E+00    0.19392E+02  0.20298E+02 -0.39690E+02 -0.10594E+01  0.16568E+01  0.15203E+02      982.00
  0.56184E+00  0.65350E+02    0.30000E+00  0.30000E+00 -0.60000E+00  0.00000E+00  0.00000E+00  0.00000E+00    0.19279E+02  0.20434E+02 -0.39712E+02 -0.10190E+01  0.15785E+01  0.15390E+02      982.00
  0.58463E+00  0.65498E+02    0.31250E+00  0.31250E+00 -0.62500E+00  0.00000E+00  0.00000E+00  0.00000E+00    0.19159E+02  0.20572E+02 -0.39731E+02 -0.10000E+01  0.15165E+01  0.15565E+02      982.00
  0.60738E+00  0.65643E+02    0.32500E+00  0.32500E+00 -0.65000E+00  0.00000E+00  0.00000E+00  0.00000E+00    0.19052E+02  0.20697E+02 -0.39749E+02 -0.99213E+00  0.14721E+01  0.15733E+02      982.00
  0.63008E+00  0.65786E+02    0.33750E+00  0.33750E+00 -0.67500E+00  0.00000E+00  0.00000E+00  0.00000E+00    0.18951E+02  0.20813E+02 -0.39764E+02 -0.99455E+00  0.14420E+01  0.15898E+02      982.00
  0.65275E+00  0.65910E+02    0.35000E+00  0.35000E+00 -0.70000E+00  0.00000E+00  0.00000E+00  0.00000E+00    0.18842E+02  0.20931E+02 -0.39774E+02 -0.10116E+01  0.14198E+01  0.16045E+02      982.00
  0.67538E+00  0.66034E+02    0.36250E+00  0.36250E+00 -0.72500E+00  0.00000E+00  0.00000E+00  0.00000E+00    0.18747E+02  0.21036E+02 -0.39784E+02 -0.10312E+01  0.14080E+01  0.16189E+02      982.00
  0.69797E+00  0.66152E+02    0.37500E+00  0.37500E+00 -0.75000E+00  0.00000E+00  0.00000E+00  0.00000E+00    0.18657E+02  0.21135E+02 -0.39792E+02 -0.10557E+01  0.14033E+01  0.16326E+02      982.00
  0.72053E+00  0.66254E+02    0.38750E+00  0.38750E+00 -0.77500E+00  0.00000E+00  0.00000E+00  0.00000E+00    0.18562E+02  0.21234E+02 -0.39796E+02 -0.10885E+01  0.14009E+01  0.16446E+02      982.00
  0.74306E+00  0.66359E+02    0.40000E+00  0.40000E+00 -0.80000E+00  0.00000E+00  0.00000E+00  0.00000E+00    0.18481E+02  0.21320E+02 -0.39801E+02 -0.11194E+01  0.14062E+01  0.16569E+02      982.00
  0.76555E+00  0.66458E+02    0.41250E+00  0.41250E+00 -0.82500E+00  0.00000E+00  0.00000E+00  0.00000E+00    0.18405E+02  0.21399E+02 -0.39804E+02 -0.11512E+01  0.14145E+01  0.16685E+02      982.00
  0.78801E+00  0.66552E+02    0.42500E+00  0.42500E+00 -0.85000E+00  0.00000E+00  0.00000E+00  0.00000E+00    0.18334E+02  0.21473E+02 -0.39806E+02 -0.11837E+01  0.14251E+01  0.16795E+02      982.00
  0.81044E+00  0.66635E+02    0.43750E+00  0.43750E+00 -0.87500E+00  0.00000E+00  0.00000E+00  0.00000E+00    0.18260E+02  0.21551E+02 -0.39810E+02 -0.12214E+01  0.14336E+01  0.16886E+02      982.00
  0.83284E+00  0.66717E+02    0.45000E+00  0.45000E+00 -0.90000E+00  0.00000E+00  0.00000E+00  0.00000E+00    0.18198E+02  0.21613E+02 -0.39811E+02 -0.12541E+01  0.14468E+01  0.16985E+02      982.00
  0.85522E+00  0.66795E+02    0.46250E+00  0.46250E+00 -0.92500E+00  0.00000E+00  0.00000E+00  0.00000E+00    0.18140E+02  0.21670E+02 -0.39811E+02 -0.12859E+01  0.14610E+01  0.17077E+02      982.00
  0.87757E+00  0.66868E+02    0.47500E+00  0.47500E+00 -0.95000E+00  0.00000E+00  0.00000E+00  0.00000E+00    0.18087E+02  0.21723E+02 -0.39810E+02 -0.13168E+01  0.14754E+01  0.17163E+02      982.00
  0.89989E+00  0.66936E+02    0.48750E+00  0.48750E+00 -0.97500E+00  0.00000E+00  0.00000E+00  0.00000E+00    0.18038E+02  0.21771E+02 -0.39809E+02 -0.13468E+01  0.14897E+01  0.17245E+02      982.00
  0.92220E+00  0.67001E+02    0.50000E+00  0.50000E+00 -0.10000E+01  0.00000E+00  0.00000E+00  0.00000E+00    0.17985E+02  0.21825E+02 -0.39811E+02 -0.13819E+01  0.15020E+01  0.17316E+02      982.00
