          Evm          Svm            E11          E22          E33          E23          E13          E12         SDEV11       SDEV22       SDEV33       SDEV23       SDEV13       SDEV12      TEMP
  0.00000E+00  0.60285E+02    0.00000E+00  0.00000E+00  0.00000E+00  0.00000E+00  0.00000E+00  0.00000E+00    0.16224E+02  0.22373E+02 -0.38597E+02  0.66011E+01 -0.33711E+01  0.54537E+01      982.00
  0.24009E-01  0.60541E+02    0.12500E-01  0.12500E-01 -0.25000E-01  0.00000E+00  0.00000E+00  0.00000E+00    0.17094E+02  0.21660E+02 -0.38754E+02  0.66172E+01 -0.36127E+01  0.57703E+01      982.00
  0.48014E-01  0.60930E+02    0.25000E-01  0.25000E-01 -0.50000E-01  0.00000E+00  0.00000E+00  0.00000E+00    0.18123E+02  0.20845E+02 -0.38969E+02  0.65864E+01 -0.39127E+01  0.61649E+01      982.00
  0.71998E-01  0.61327E+02    0.37500E-01  0.37500E-01 -0.75000E-01  0.00000E+00  0.00000E+00  0.00000E+00    0.19137E+02  0.20033E+02 -0.39170E+02  0.65025E+01 -0.41799E+01  0.65572E+01      982.00
  0.95949E-01  0.61657E+02    0.50000E-01  0.50000E-01 -0.10000E+00  0.00000E+00  0.00000E+00  0.00000E+00    0.19969E+02  0.19360E+02 -0.39329E+02  0.63802E+01 -0.43225E+01  0.69005E+01      982.00
  0.11987E+00  0.61918E+02    0.62500E-01  0.62500E-01 -0.12500E+00  0.00000E+00  0.00000E+00  0.00000E+00    0.20583E+02  0.18870E+02 -0.39453E+02  0.62409E+01 -0.43379E+01  0.72141E+01      982.00
  0.14376E+00  0.62140E+02    0.75000E-01  0.75000E-01 -0.15000E+00  0.00000E+00  0.00000E+00  0.00000E+00    0.21025E+02  0.18530E+02 -0.39555E+02  0.60981E+01 -0.42742E+01  0.75279E+01      982.00
  0.16763E+00  0.62349E+02    0.87500E-01  0.87500E-01 -0.17500E+00  0.00000E+00  0.00000E+00  0.00000E+00    0.21333E+02  0.18315E+02 -0.39648E+02  0.59633E+01 -0.41654E+01  0.78522E+01      982.00
  0.19148E+00  0.62563E+02    0.10000E+00  0.10000E+00 -0.20000E+00  0.00000E+00  0.00000E+00  0.00000E+00    0.21555E+02  0.18182E+02 -0.39737E+02  0.58374E+01 -0.40493E+01  0.81925E+01      982.00
  0.21530E+00  0.62782E+02    0.11250E+00  0.11250E+00 -0.22500E+00  0.00000E+00  0.00000E+00  0.00000E+00    0.21704E+02  0.18118E+02 -0.39822E+02  0.57250E+01 -0.39319E+01  0.85470E+01      982.00
  0.23908E+00  0.63012E+02    0.12500E+00  0.12500E+00 -0.25000E+00  0.00000E+00  0.00000E+00  0.00000E+00    0.21802E+02  0.18102E+02 -0.39904E+02  0.56243E+01 -0.38285E+01  0.89186E+01      982.00
  0.26283E+00  0.63260E+02    0.13750E+00  0.13750E+00 -0.27500E+00  0.00000E+00  0.00000E+00  0.00000E+00    0.21863E+02  0.18122E+02 -0.39985E+02  0.55361E+01 -0.37430E+01  0.93100E+01      982.00
  0.28654E+00  0.63510E+02    0.15000E+00  0.15000E+00 -0.30000E+00  0.00000E+00  0.00000E+00  0.00000E+00    0.21885E+02  0.18176E+02 -0.40062E+02  0.54658E+01 -0.36798E+01  0.96931E+01      982.00
  0.31019E+00  0.63757E+02    0.16250E+00  0.16250E+00 -0.32500E+00  0.00000E+00  0.00000E+00  0.00000E+00    0.21881E+02  0.18248E+02 -0.40129E+02  0.54103E+01 -0.36395E+01  0.10069E+02      982.00
  0.33379E+00  0.64011E+02    0.17500E+00  0.17500E+00 -0.35000E+00  0.00000E+00  0.00000E+00  0.00000E+00    0.21857E+02  0.18331E+02 -0.40188E+02  0.53594E+01 -0.36231E+01  0.10467E+02      982.00
  0.35734E+00  0.64267E+02    0.18750E+00  0.18750E+00 -0.37500E+00  0.00000E+00  0.00000E+00  0.00000E+00    0.21811E+02  0.18424E+02 -0.40235E+02  0.53100E+01 -0.36304E+01  0.10879E+02      982.00
  0.38081E+00  0.64513E+02    0.20000E+00  0.20000E+00 -0.40000E+00  0.00000E+00  0.00000E+00  0.00000E+00    0.21738E+02  0.18529E+02 -0.40267E+02  0.52590E+01 -0.36602E+01  0.11297E+02      982.00
  0.40422E+00  0.64756E+02    0.21250E+00  0.21250E+00 -0.42500E+00  0.00000E+00  0.00000E+00  0.00000E+00    0.21649E+02  0.18635E+02 -0.40285E+02  0.52082E+01 -0.37091E+01  0.11727E+02      982.00
  0.42755E+00  0.64988E+02    0.22500E+00  0.22500E+00 -0.45000E+00  0.00000E+00  0.00000E+00  0.00000E+00    0.21536E+02  0.18748E+02 -0.40284E+02  0.51547E+01 -0.37757E+01  0.12162E+02      982.00
  0.45079E+00  0.65210E+02    0.23750E+00  0.23750E+00 -0.47500E+00  0.00000E+00  0.00000E+00  0.00000E+00    0.21407E+02  0.18860E+02 -0.40267E+02  0.50988E+01 -0.38566E+01  0.12606E+02      982.00
  0.47395E+00  0.65425E+02    0.25000E+00  0.25000E+00 -0.50000E+00  0.00000E+00  0.00000E+00  0.00000E+00    0.21266E+02  0.18967E+02 -0.40232E+02  0.50400E+01 -0.39488E+01  0.13058E+02      982.00
  0.49701E+00  0.65630E+02    0.26250E+00  0.26250E+00 -0.52500E+00  0.00000E+00  0.00000E+00  0.00000E+00    0.21118E+02  0.19062E+02 -0.40179E+02  0.49785E+01 -0.40486E+01  0.13519E+02      982.00
  0.51997E+00  0.65823E+02    0.27500E+00  0.27500E+00 -0.55000E+00  0.00000E+00  0.00000E+00  0.00000E+00    0.20960E+02  0.19147E+02 -0.40107E+02  0.49142E+01 -0.41521E+01  0.13984E+02      982.00
  0.54282E+00  0.66009E+02    0.28750E+00  0.28750E+00 -0.57500E+00  0.00000E+00  0.00000E+00  0.00000E+00    0.20811E+02  0.19208E+02 -0.40018E+02  0.48476E+01 -0.42551E+01  0.14459E+02      982.00
  0.56555E+00  0.66179E+02    0.30000E+00  0.30000E+00 -0.60000E+00  0.00000E+00  0.00000E+00  0.00000E+00    0.20662E+02  0.19248E+02 -0.39910E+02  0.47743E+01 -0.43547E+01  0.14934E+02      982.00
  0.58817E+00  0.66337E+02    0.31250E+00  0.31250E+00 -0.62500E+00  0.00000E+00  0.00000E+00  0.00000E+00    0.20525E+02  0.19260E+02 -0.39785E+02  0.46917E+01 -0.44468E+01  0.15413E+02      982.00
  0.61066E+00  0.66486E+02    0.32500E+00  0.32500E+00 -0.65000E+00  0.00000E+00  0.00000E+00  0.00000E+00    0.20402E+02  0.19240E+02 -0.39642E+02  0.45968E+01 -0.45281E+01  0.15902E+02      982.00
  0.63302E+00  0.66619E+02    0.33750E+00  0.33750E+00 -0.67500E+00  0.00000E+00  0.00000E+00  0.00000E+00    0.20294E+02  0.19187E+02 -0.39481E+02  0.45076E+01 -0.45861E+01  0.16390E+02      982.00
  0.65524E+00  0.66736E+02    0.35000E+00  0.35000E+00 -0.70000E+00  0.00000E+00  0.00000E+00  0.00000E+00    0.20200E+02  0.19105E+02 -0.39304E+02  0.44080E+01 -0.46234E+01  0.16877E+02      982.00
  0.67733E+00  0.66843E+02    0.36250E+00  0.36250E+00 -0.72500E+00  0.00000E+00  0.00000E+00  0.00000E+00    0.20113E+02  0.19001E+02 -0.39114E+02  0.43115E+01 -0.46344E+01  0.17364E+02      982.00
  0.69927E+00  0.66931E+02    0.37500E+00  0.37500E+00 -0.75000E+00  0.00000E+00  0.00000E+00  0.00000E+00    0.20040E+02  0.18873E+02 -0.38913E+02  0.41839E+01 -0.46232E+01  0.17842E+02      982.00
  0.72107E+00  0.67004E+02    0.38750E+00  0.38750E+00 -0.77500E+00  0.00000E+00  0.00000E+00  0.00000E+00    0.19980E+02  0.18726E+02 -0.38705E+02  0.40388E+01 -0.45843E+01  0.18309E+02      982.00
  0.74273E+00  0.67063E+02    0.40000E+00  0.40000E+00 -0.80000E+00  0.00000E+00  0.00000E+00  0.00000E+00    0.19930E+02  0.18563E+02 -0.38493E+02  0.38748E+01 -0.45163E+01  0.18761E+02      982.00
  0.76426E+00  0.67118E+02    0.41250E+00  0.41250E+00 -0.82500E+00  0.00000E+00  0.00000E+00  0.00000E+00    0.19884E+02  0.18400E+02 -0.38284E+02  0.37028E+01 -0.44219E+01  0.19197E+02      982.00
  0.78565E+00  0.67148E+02    0.42500E+00  0.42500E+00 -0.85000E+00  0.00000E+00  0.00000E+00  0.00000E+00    0.19856E+02  0.18221E+02 -0.38077E+02  0.34956E+01 -0.42947E+01  0.19601E+02      982.00
  0.80691E+00  0.67175E+02    0.43750E+00  0.43750E+00 -0.87500E+00  0.00000E+00  0.00000E+00  0.00000E+00    0.19832E+02  0.18049E+02 -0.37881E+02  0.32845E+01 -0.41469E+01  0.19979E+02      982.00
  0.82806E+00  0.67186E+02    0.45000E+00  0.45000E+00 -0.90000E+00  0.00000E+00  0.00000E+00  0.00000E+00    0.19821E+02  0.17874E+02 -0.37695E+02  0.30467E+01 -0.39693E+01  0.20322E+02      982.00
  0.84910E+00  0.67191E+02    0.46250E+00  0.46250E+00 -0.92500E+00  0.00000E+00  0.00000E+00  0.00000E+00    0.19816E+02  0.17709E+02 -0.37525E+02  0.27994E+01 -0.37717E+01  0.20630E+02      982.00
  0.87004E+00  0.67185E+02    0.47500E+00  0.47500E+00 -0.95000E+00  0.00000E+00  0.00000E+00  0.00000E+00    0.19821E+02  0.17552E+02 -0.37373E+02  0.25312E+01 -0.35484E+01  0.20899E+02      982.00
  0.89090E+00  0.67175E+02    0.48750E+00  0.48750E+00 -0.97500E+00  0.00000E+00  0.00000E+00  0.00000E+00    0.19831E+02  0.17410E+02 -0.37241E+02  0.22588E+01 -0.33123E+01  0.21129E+02      982.00
  0.91169E+00  0.67122E+02    0.50000E+00  0.50000E+00 -0.10000E+01  0.00000E+00  0.00000E+00  0.00000E+00    0.19842E+02  0.17272E+02 -0.37113E+02  0.19945E+01 -0.30666E+01  0.21300E+02      982.00
