          Evm          Svm            E11          E22          E33          E23          E13          E12         SDEV11       SDEV22       SDEV33       SDEV23       SDEV13       SDEV12      TEMP
  0.00000E+00  0.63538E+02    0.00000E+00  0.00000E+00  0.00000E+00  0.00000E+00  0.00000E+00  0.00000E+00    0.19864E+02  0.20407E+02 -0.40271E+02 -0.28546E+01  0.27667E+01  0.10652E+02      982.00
  0.23768E-01  0.63537E+02    0.12500E-01  0.12500E-01 -0.25000E-01  0.00000E+00  0.00000E+00  0.00000E+00    0.19732E+02  0.20571E+02 -0.40303E+02 -0.28737E+01  0.25983E+01  0.10595E+02      982.00
  0.47555E-01  0.63567E+02    0.25000E-01  0.25000E-01 -0.50000E-01  0.00000E+00  0.00000E+00  0.00000E+00    0.19664E+02  0.20681E+02 -0.40345E+02 -0.28694E+01  0.24617E+01  0.10564E+02      982.00
  0.71356E-01  0.63623E+02    0.37500E-01  0.37500E-01 -0.75000E-01  0.00000E+00  0.00000E+00  0.00000E+00    0.19605E+02  0.20787E+02 -0.40393E+02 -0.28537E+01  0.23423E+01  0.10565E+02      982.00
  0.95163E-01  0.63720E+02    0.50000E-01  0.50000E-01 -0.10000E+00  0.00000E+00  0.00000E+00  0.00000E+00    0.19576E+02  0.20883E+02 -0.40460E+02 -0.28336E+01  0.22442E+01  0.10591E+02      982.00
  0.11897E+00  0.63852E+02    0.62500E-01  0.62500E-01 -0.12500E+00  0.00000E+00  0.00000E+00  0.00000E+00    0.19566E+02  0.20976E+02 -0.40542E+02 -0.28120E+01  0.21627E+01  0.10640E+02      982.00
  0.14278E+00  0.64028E+02    0.75000E-01  0.75000E-01 -0.15000E+00  0.00000E+00  0.00000E+00  0.00000E+00    0.19573E+02  0.21071E+02 -0.40644E+02 -0.27918E+01  0.20952E+01  0.10717E+02      982.00
  0.16659E+00  0.64229E+02    0.87500E-01  0.87500E-01 -0.17500E+00  0.00000E+00  0.00000E+00  0.00000E+00    0.19589E+02  0.21166E+02 -0.40755E+02 -0.27699E+01  0.20360E+01  0.10814E+02      982.00
  0.19038E+00  0.64453E+02    0.10000E+00  0.10000E+00 -0.20000E+00  0.00000E+00  0.00000E+00  0.00000E+00    0.19625E+02  0.21256E+02 -0.40881E+02 -0.27572E+01  0.19951E+01  0.10909E+02      982.00
  0.21417E+00  0.64696E+02    0.11250E+00  0.11250E+00 -0.22500E+00  0.00000E+00  0.00000E+00  0.00000E+00    0.19673E+02  0.21345E+02 -0.41018E+02 -0.27494E+01  0.19647E+01  0.11011E+02      982.00
  0.23794E+00  0.64954E+02    0.12500E+00  0.12500E+00 -0.25000E+00  0.00000E+00  0.00000E+00  0.00000E+00    0.19729E+02  0.21433E+02 -0.41162E+02 -0.27459E+01  0.19434E+01  0.11117E+02      982.00
  0.26171E+00  0.65222E+02    0.13750E+00  0.13750E+00 -0.27500E+00  0.00000E+00  0.00000E+00  0.00000E+00    0.19793E+02  0.21519E+02 -0.41312E+02 -0.27463E+01  0.19297E+01  0.11223E+02      982.00
  0.28546E+00  0.65517E+02    0.15000E+00  0.15000E+00 -0.30000E+00  0.00000E+00  0.00000E+00  0.00000E+00    0.19865E+02  0.21609E+02 -0.41474E+02 -0.27473E+01  0.19180E+01  0.11347E+02      982.00
  0.30920E+00  0.65789E+02    0.16250E+00  0.16250E+00 -0.32500E+00  0.00000E+00  0.00000E+00  0.00000E+00    0.19938E+02  0.21691E+02 -0.41628E+02 -0.27533E+01  0.19161E+01  0.11446E+02      982.00
  0.33293E+00  0.66056E+02    0.17500E+00  0.17500E+00 -0.35000E+00  0.00000E+00  0.00000E+00  0.00000E+00    0.20012E+02  0.21769E+02 -0.41781E+02 -0.27610E+01  0.19183E+01  0.11538E+02      982.00
  0.35665E+00  0.66315E+02    0.18750E+00  0.18750E+00 -0.37500E+00  0.00000E+00  0.00000E+00  0.00000E+00    0.20087E+02  0.21843E+02 -0.41931E+02 -0.27690E+01  0.19231E+01  0.11625E+02      982.00
  0.38036E+00  0.66569E+02    0.20000E+00  0.20000E+00 -0.40000E+00  0.00000E+00  0.00000E+00  0.00000E+00    0.20162E+02  0.21911E+02 -0.42074E+02 -0.27782E+01  0.19295E+01  0.11718E+02      982.00
  0.40406E+00  0.66807E+02    0.21250E+00  0.21250E+00 -0.42500E+00  0.00000E+00  0.00000E+00  0.00000E+00    0.20236E+02  0.21977E+02 -0.42213E+02 -0.27857E+01  0.19374E+01  0.11790E+02      982.00
  0.42775E+00  0.67030E+02    0.22500E+00  0.22500E+00 -0.45000E+00  0.00000E+00  0.00000E+00  0.00000E+00    0.20307E+02  0.22039E+02 -0.42345E+02 -0.27905E+01  0.19450E+01  0.11854E+02      982.00
  0.45144E+00  0.67241E+02    0.23750E+00  0.23750E+00 -0.47500E+00  0.00000E+00  0.00000E+00  0.00000E+00    0.20375E+02  0.22096E+02 -0.42471E+02 -0.27946E+01  0.19530E+01  0.11913E+02      982.00
  0.47513E+00  0.67493E+02    0.25000E+00  0.25000E+00 -0.50000E+00  0.00000E+00  0.00000E+00  0.00000E+00    0.20457E+02  0.22164E+02 -0.42621E+02 -0.27963E+01  0.19606E+01  0.11984E+02      982.00
  0.49881E+00  0.67672E+02    0.26250E+00  0.26250E+00 -0.52500E+00  0.00000E+00  0.00000E+00  0.00000E+00    0.20518E+02  0.22211E+02 -0.42729E+02 -0.27958E+01  0.19668E+01  0.12031E+02      982.00
  0.52249E+00  0.67837E+02    0.27500E+00  0.27500E+00 -0.55000E+00  0.00000E+00  0.00000E+00  0.00000E+00    0.20575E+02  0.22255E+02 -0.42830E+02 -0.27944E+01  0.19729E+01  0.12072E+02      982.00
  0.54617E+00  0.67990E+02    0.28750E+00  0.28750E+00 -0.57500E+00  0.00000E+00  0.00000E+00  0.00000E+00    0.20629E+02  0.22296E+02 -0.42925E+02 -0.27915E+01  0.19784E+01  0.12108E+02      982.00
  0.56984E+00  0.68138E+02    0.30000E+00  0.30000E+00 -0.60000E+00  0.00000E+00  0.00000E+00  0.00000E+00    0.20680E+02  0.22335E+02 -0.43016E+02 -0.27893E+01  0.19847E+01  0.12142E+02      982.00
  0.59351E+00  0.68269E+02    0.31250E+00  0.31250E+00 -0.62500E+00  0.00000E+00  0.00000E+00  0.00000E+00    0.20727E+02  0.22371E+02 -0.43098E+02 -0.27839E+01  0.19887E+01  0.12171E+02      982.00
  0.61719E+00  0.68391E+02    0.32500E+00  0.32500E+00 -0.65000E+00  0.00000E+00  0.00000E+00  0.00000E+00    0.20771E+02  0.22403E+02 -0.43174E+02 -0.27774E+01  0.19921E+01  0.12196E+02      982.00
  0.64086E+00  0.68503E+02    0.33750E+00  0.33750E+00 -0.67500E+00  0.00000E+00  0.00000E+00  0.00000E+00    0.20811E+02  0.22434E+02 -0.43245E+02 -0.27701E+01  0.19949E+01  0.12219E+02      982.00
  0.66453E+00  0.68631E+02    0.35000E+00  0.35000E+00 -0.70000E+00  0.00000E+00  0.00000E+00  0.00000E+00    0.20857E+02  0.22469E+02 -0.43326E+02 -0.27558E+01  0.19959E+01  0.12246E+02      982.00
  0.68821E+00  0.68725E+02    0.36250E+00  0.36250E+00 -0.72500E+00  0.00000E+00  0.00000E+00  0.00000E+00    0.20892E+02  0.22494E+02 -0.43386E+02 -0.27445E+01  0.19974E+01  0.12266E+02      982.00
  0.71188E+00  0.68816E+02    0.37500E+00  0.37500E+00 -0.75000E+00  0.00000E+00  0.00000E+00  0.00000E+00    0.20925E+02  0.22519E+02 -0.43445E+02 -0.27361E+01  0.19998E+01  0.12283E+02      982.00
  0.73556E+00  0.68891E+02    0.38750E+00  0.38750E+00 -0.77500E+00  0.00000E+00  0.00000E+00  0.00000E+00    0.20953E+02  0.22541E+02 -0.43494E+02 -0.27273E+01  0.20010E+01  0.12294E+02      982.00
  0.75923E+00  0.68965E+02    0.40000E+00  0.40000E+00 -0.80000E+00  0.00000E+00  0.00000E+00  0.00000E+00    0.20979E+02  0.22563E+02 -0.43542E+02 -0.27177E+01  0.20020E+01  0.12307E+02      982.00
  0.78291E+00  0.69033E+02    0.41250E+00  0.41250E+00 -0.82500E+00  0.00000E+00  0.00000E+00  0.00000E+00    0.21003E+02  0.22583E+02 -0.43586E+02 -0.27077E+01  0.20027E+01  0.12318E+02      982.00
  0.80658E+00  0.69096E+02    0.42500E+00  0.42500E+00 -0.85000E+00  0.00000E+00  0.00000E+00  0.00000E+00    0.21025E+02  0.22603E+02 -0.43628E+02 -0.26976E+01  0.20034E+01  0.12327E+02      982.00
  0.83026E+00  0.69155E+02    0.43750E+00  0.43750E+00 -0.87500E+00  0.00000E+00  0.00000E+00  0.00000E+00    0.21046E+02  0.22621E+02 -0.43667E+02 -0.26876E+01  0.20040E+01  0.12336E+02      982.00
  0.85394E+00  0.69210E+02    0.45000E+00  0.45000E+00 -0.90000E+00  0.00000E+00  0.00000E+00  0.00000E+00    0.21064E+02  0.22639E+02 -0.43703E+02 -0.26778E+01  0.20046E+01  0.12344E+02      982.00
  0.87762E+00  0.69261E+02    0.46250E+00  0.46250E+00 -0.92500E+00  0.00000E+00  0.00000E+00  0.00000E+00    0.21081E+02  0.22656E+02 -0.43737E+02 -0.26682E+01  0.20052E+01  0.12352E+02      982.00
  0.90130E+00  0.69298E+02    0.47500E+00  0.47500E+00 -0.95000E+00  0.00000E+00  0.00000E+00  0.00000E+00    0.21094E+02  0.22665E+02 -0.43760E+02 -0.26718E+01  0.20091E+01  0.12359E+02      982.00
  0.92498E+00  0.69353E+02    0.48750E+00  0.48750E+00 -0.97500E+00  0.00000E+00  0.00000E+00  0.00000E+00    0.21113E+02  0.22687E+02 -0.43799E+02 -0.26537E+01  0.20070E+01  0.12363E+02      982.00
  0.94866E+00  0.69359E+02    0.50000E+00  0.50000E+00 -0.10000E+01  0.00000E+00  0.00000E+00  0.00000E+00    0.21115E+02  0.22686E+02 -0.43802E+02 -0.26469E+01  0.20013E+01  0.12369E+02      982.00
