          Evm          Svm            E11          E22          E33          E23          E13          E12         SDEV11       SDEV22       SDEV33       SDEV23       SDEV13       SDEV12      TEMP
  0.00000E+00  0.60859E+02    0.00000E+00  0.00000E+00  0.00000E+00  0.00000E+00  0.00000E+00  0.00000E+00    0.27725E+02  0.99467E+01 -0.37672E+02  0.58093E+01 -0.26745E+01 -0.70939E+01      982.00
  0.23212E-01  0.60895E+02    0.12500E-01  0.12500E-01 -0.25000E-01  0.00000E+00  0.00000E+00  0.00000E+00    0.27759E+02  0.99612E+01 -0.37720E+02  0.57952E+01 -0.26545E+01 -0.70102E+01      982.00
  0.46441E-01  0.61068E+02    0.25000E-01  0.25000E-01 -0.50000E-01  0.00000E+00  0.00000E+00  0.00000E+00    0.27869E+02  0.99688E+01 -0.37838E+02  0.58003E+01 -0.26352E+01 -0.69730E+01      982.00
  0.69676E-01  0.61295E+02    0.37500E-01  0.37500E-01 -0.75000E-01  0.00000E+00  0.00000E+00  0.00000E+00    0.27987E+02  0.99928E+01 -0.37980E+02  0.58383E+01 -0.26044E+01 -0.69779E+01      982.00
  0.92912E-01  0.61531E+02    0.50000E-01  0.50000E-01 -0.10000E+00  0.00000E+00  0.00000E+00  0.00000E+00    0.28097E+02  0.10038E+02 -0.38135E+02  0.58628E+01 -0.25754E+01 -0.69832E+01      982.00
  0.11615E+00  0.61916E+02    0.62500E-01  0.62500E-01 -0.12500E+00  0.00000E+00  0.00000E+00  0.00000E+00    0.28288E+02  0.10081E+02 -0.38369E+02  0.59389E+01 -0.25090E+01 -0.70209E+01      982.00
  0.13939E+00  0.62347E+02    0.75000E-01  0.75000E-01 -0.15000E+00  0.00000E+00  0.00000E+00  0.00000E+00    0.28499E+02  0.10138E+02 -0.38637E+02  0.60071E+01 -0.24354E+01 -0.70588E+01      982.00
  0.16263E+00  0.62816E+02    0.87500E-01  0.87500E-01 -0.17500E+00  0.00000E+00  0.00000E+00  0.00000E+00    0.28719E+02  0.10209E+02 -0.38928E+02  0.60966E+01 -0.23389E+01 -0.71007E+01      982.00
  0.18587E+00  0.63316E+02    0.10000E+00  0.10000E+00 -0.20000E+00  0.00000E+00  0.00000E+00  0.00000E+00    0.28947E+02  0.10297E+02 -0.39244E+02  0.61916E+01 -0.22256E+01 -0.71414E+01      982.00
  0.20911E+00  0.63842E+02    0.11250E+00  0.11250E+00 -0.22500E+00  0.00000E+00  0.00000E+00  0.00000E+00    0.29185E+02  0.10395E+02 -0.39579E+02  0.62806E+01 -0.21029E+01 -0.71816E+01      982.00
  0.23236E+00  0.64367E+02    0.12500E+00  0.12500E+00 -0.25000E+00  0.00000E+00  0.00000E+00  0.00000E+00    0.29412E+02  0.10510E+02 -0.39922E+02  0.63674E+01 -0.19636E+01 -0.72129E+01      982.00
  0.25562E+00  0.64891E+02    0.13750E+00  0.13750E+00 -0.27500E+00  0.00000E+00  0.00000E+00  0.00000E+00    0.29632E+02  0.10637E+02 -0.40270E+02  0.64430E+01 -0.18120E+01 -0.72376E+01      982.00
  0.27889E+00  0.65409E+02    0.15000E+00  0.15000E+00 -0.30000E+00  0.00000E+00  0.00000E+00  0.00000E+00    0.29845E+02  0.10776E+02 -0.40621E+02  0.65029E+01 -0.16487E+01 -0.72558E+01      982.00
  0.30218E+00  0.65921E+02    0.16250E+00  0.16250E+00 -0.32500E+00  0.00000E+00  0.00000E+00  0.00000E+00    0.30051E+02  0.10924E+02 -0.40975E+02  0.65456E+01 -0.14743E+01 -0.72683E+01      982.00
  0.32549E+00  0.66433E+02    0.17500E+00  0.17500E+00 -0.35000E+00  0.00000E+00  0.00000E+00  0.00000E+00    0.30254E+02  0.11081E+02 -0.41335E+02  0.65732E+01 -0.12932E+01 -0.72741E+01      982.00
  0.34882E+00  0.66944E+02    0.18750E+00  0.18750E+00 -0.37500E+00  0.00000E+00  0.00000E+00  0.00000E+00    0.30452E+02  0.11246E+02 -0.41699E+02  0.65967E+01 -0.11192E+01 -0.72647E+01      982.00
  0.37218E+00  0.67440E+02    0.20000E+00  0.20000E+00 -0.40000E+00  0.00000E+00  0.00000E+00  0.00000E+00    0.30640E+02  0.11417E+02 -0.42057E+02  0.66387E+01 -0.97940E+00 -0.72144E+01      982.00
  0.39557E+00  0.67828E+02    0.21250E+00  0.21250E+00 -0.42500E+00  0.00000E+00  0.00000E+00  0.00000E+00    0.30772E+02  0.11590E+02 -0.42362E+02  0.66938E+01 -0.88275E+00 -0.70745E+01      982.00
  0.41899E+00  0.68069E+02    0.22500E+00  0.22500E+00 -0.45000E+00  0.00000E+00  0.00000E+00  0.00000E+00    0.30849E+02  0.11746E+02 -0.42595E+02  0.66883E+01 -0.76752E+00 -0.68696E+01      982.00
  0.44245E+00  0.68195E+02    0.23750E+00  0.23750E+00 -0.47500E+00  0.00000E+00  0.00000E+00  0.00000E+00    0.30885E+02  0.11889E+02 -0.42773E+02  0.65740E+01 -0.56639E+00 -0.66536E+01      982.00
  0.46597E+00  0.68320E+02    0.25000E+00  0.25000E+00 -0.50000E+00  0.00000E+00  0.00000E+00  0.00000E+00    0.30931E+02  0.12015E+02 -0.42946E+02  0.64083E+01 -0.35639E+00 -0.64773E+01      982.00
  0.48955E+00  0.68445E+02    0.26250E+00  0.26250E+00 -0.52500E+00  0.00000E+00  0.00000E+00  0.00000E+00    0.30982E+02  0.12131E+02 -0.43113E+02  0.62177E+01 -0.12669E+00 -0.63257E+01      982.00
  0.51317E+00  0.68577E+02    0.27500E+00  0.27500E+00 -0.55000E+00  0.00000E+00  0.00000E+00  0.00000E+00    0.31037E+02  0.12238E+02 -0.43275E+02  0.60292E+01  0.92453E-01 -0.61919E+01      982.00
  0.53683E+00  0.68718E+02    0.28750E+00  0.28750E+00 -0.57500E+00  0.00000E+00  0.00000E+00  0.00000E+00    0.31098E+02  0.12335E+02 -0.43433E+02  0.58568E+01  0.28682E+00 -0.60705E+01      982.00
  0.56053E+00  0.68865E+02    0.30000E+00  0.30000E+00 -0.60000E+00  0.00000E+00  0.00000E+00  0.00000E+00    0.31161E+02  0.12424E+02 -0.43585E+02  0.57148E+01  0.44392E+00 -0.59535E+01      982.00
  0.58427E+00  0.69014E+02    0.31250E+00  0.31250E+00 -0.62500E+00  0.00000E+00  0.00000E+00  0.00000E+00    0.31228E+02  0.12503E+02 -0.43731E+02  0.55782E+01  0.58798E+00 -0.58534E+01      982.00
  0.60803E+00  0.69165E+02    0.32500E+00  0.32500E+00 -0.65000E+00  0.00000E+00  0.00000E+00  0.00000E+00    0.31293E+02  0.12577E+02 -0.43870E+02  0.54855E+01  0.68431E+00 -0.57454E+01      982.00
  0.63181E+00  0.69311E+02    0.33750E+00  0.33750E+00 -0.67500E+00  0.00000E+00  0.00000E+00  0.00000E+00    0.31360E+02  0.12643E+02 -0.44003E+02  0.53913E+01  0.77489E+00 -0.56473E+01      982.00
  0.65562E+00  0.69448E+02    0.35000E+00  0.35000E+00 -0.70000E+00  0.00000E+00  0.00000E+00  0.00000E+00    0.31419E+02  0.12705E+02 -0.44124E+02  0.53369E+01  0.82562E+00 -0.55462E+01      982.00
  0.67945E+00  0.69588E+02    0.36250E+00  0.36250E+00 -0.72500E+00  0.00000E+00  0.00000E+00  0.00000E+00    0.31485E+02  0.12760E+02 -0.44246E+02  0.52754E+01  0.87752E+00 -0.54434E+01      982.00
  0.70329E+00  0.69726E+02    0.37500E+00  0.37500E+00 -0.75000E+00  0.00000E+00  0.00000E+00  0.00000E+00    0.31555E+02  0.12810E+02 -0.44366E+02  0.52199E+01  0.91301E+00 -0.53335E+01      982.00
  0.72715E+00  0.69850E+02    0.38750E+00  0.38750E+00 -0.77500E+00  0.00000E+00  0.00000E+00  0.00000E+00    0.31612E+02  0.12859E+02 -0.44471E+02  0.51916E+01  0.92493E+00 -0.52331E+01      982.00
  0.75103E+00  0.69966E+02    0.40000E+00  0.40000E+00 -0.80000E+00  0.00000E+00  0.00000E+00  0.00000E+00    0.31665E+02  0.12904E+02 -0.44569E+02  0.51704E+01  0.92860E+00 -0.51345E+01      982.00
  0.77491E+00  0.70075E+02    0.41250E+00  0.41250E+00 -0.82500E+00  0.00000E+00  0.00000E+00  0.00000E+00    0.31715E+02  0.12946E+02 -0.44661E+02  0.51534E+01  0.92666E+00 -0.50391E+01      982.00
  0.79881E+00  0.70176E+02    0.42500E+00  0.42500E+00 -0.85000E+00  0.00000E+00  0.00000E+00  0.00000E+00    0.31762E+02  0.12984E+02 -0.44746E+02  0.51394E+01  0.92032E+00 -0.49471E+01      982.00
  0.82272E+00  0.70261E+02    0.43750E+00  0.43750E+00 -0.87500E+00  0.00000E+00  0.00000E+00  0.00000E+00    0.31799E+02  0.13018E+02 -0.44816E+02  0.51364E+01  0.91617E+00 -0.48722E+01      982.00
  0.84664E+00  0.70292E+02    0.45000E+00  0.45000E+00 -0.90000E+00  0.00000E+00  0.00000E+00  0.00000E+00    0.31825E+02  0.13030E+02 -0.44855E+02  0.50869E+01  0.89491E+00 -0.47969E+01      982.00
  0.87057E+00  0.70316E+02    0.46250E+00  0.46250E+00 -0.92500E+00  0.00000E+00  0.00000E+00  0.00000E+00    0.31841E+02  0.13049E+02 -0.44889E+02  0.50523E+01  0.87652E+00 -0.47156E+01      982.00
  0.89451E+00  0.70340E+02    0.47500E+00  0.47500E+00 -0.95000E+00  0.00000E+00  0.00000E+00  0.00000E+00    0.31844E+02  0.13079E+02 -0.44923E+02  0.50304E+01  0.86324E+00 -0.46502E+01      982.00
  0.91846E+00  0.70358E+02    0.48750E+00  0.48750E+00 -0.97500E+00  0.00000E+00  0.00000E+00  0.00000E+00    0.31868E+02  0.13083E+02 -0.44951E+02  0.49978E+01  0.83945E+00 -0.45567E+01      982.00
  0.94242E+00  0.70381E+02    0.50000E+00  0.50000E+00 -0.10000E+01  0.00000E+00  0.00000E+00  0.00000E+00    0.31873E+02  0.13109E+02 -0.44981E+02  0.49780E+01  0.82565E+00 -0.44951E+01      982.00
