          Evm          Svm            E11          E22          E33          E23          E13          E12         SDEV11       SDEV22       SDEV33       SDEV23       SDEV13       SDEV12      TEMP
  0.00000E+00  0.56164E+02    0.00000E+00  0.00000E+00  0.00000E+00  0.00000E+00  0.00000E+00  0.00000E+00    0.14938E+02  0.19777E+02 -0.34715E+02 -0.44910E+01  0.70671E+00  0.11003E+02      982.00
  0.23179E-01  0.56256E+02    0.12500E-01  0.12500E-01 -0.25000E-01  0.00000E+00  0.00000E+00  0.00000E+00    0.15462E+02  0.19268E+02 -0.34730E+02 -0.41289E+01  0.94660E+00  0.11346E+02      982.00
  0.46330E-01  0.56412E+02    0.25000E-01  0.25000E-01 -0.50000E-01  0.00000E+00  0.00000E+00  0.00000E+00    0.15957E+02  0.18805E+02 -0.34762E+02 -0.38151E+01  0.11440E+01  0.11686E+02      982.00
  0.69438E-01  0.56640E+02    0.37500E-01  0.37500E-01 -0.75000E-01  0.00000E+00  0.00000E+00  0.00000E+00    0.16386E+02  0.18433E+02 -0.34819E+02 -0.35483E+01  0.12978E+01  0.12033E+02      982.00
  0.92491E-01  0.56951E+02    0.50000E-01  0.50000E-01 -0.10000E+00  0.00000E+00  0.00000E+00  0.00000E+00    0.16740E+02  0.18168E+02 -0.34908E+02 -0.33198E+01  0.14132E+01  0.12397E+02      982.00
  0.11548E+00  0.57334E+02    0.62500E-01  0.62500E-01 -0.12500E+00  0.00000E+00  0.00000E+00  0.00000E+00    0.17026E+02  0.18003E+02 -0.35028E+02 -0.31212E+01  0.14960E+01  0.12778E+02      982.00
  0.13839E+00  0.57771E+02    0.75000E-01  0.75000E-01 -0.15000E+00  0.00000E+00  0.00000E+00  0.00000E+00    0.17255E+02  0.17919E+02 -0.35174E+02 -0.29467E+01  0.15523E+01  0.13168E+02      982.00
  0.16122E+00  0.58242E+02    0.87500E-01  0.87500E-01 -0.17500E+00  0.00000E+00  0.00000E+00  0.00000E+00    0.17439E+02  0.17899E+02 -0.35338E+02 -0.27926E+01  0.15872E+01  0.13556E+02      982.00
  0.18397E+00  0.58729E+02    0.10000E+00  0.10000E+00 -0.20000E+00  0.00000E+00  0.00000E+00  0.00000E+00    0.17591E+02  0.17922E+02 -0.35513E+02 -0.26563E+01  0.16056E+01  0.13934E+02      982.00
  0.20665E+00  0.59219E+02    0.11250E+00  0.11250E+00 -0.22500E+00  0.00000E+00  0.00000E+00  0.00000E+00    0.17718E+02  0.17976E+02 -0.35694E+02 -0.25352E+01  0.16116E+01  0.14297E+02      982.00
  0.22925E+00  0.59703E+02    0.12500E+00  0.12500E+00 -0.25000E+00  0.00000E+00  0.00000E+00  0.00000E+00    0.17828E+02  0.18047E+02 -0.35875E+02 -0.24272E+01  0.16083E+01  0.14642E+02      982.00
  0.25178E+00  0.60153E+02    0.13750E+00  0.13750E+00 -0.27500E+00  0.00000E+00  0.00000E+00  0.00000E+00    0.17921E+02  0.18125E+02 -0.36046E+02 -0.23506E+01  0.15949E+01  0.14952E+02      982.00
  0.27425E+00  0.60604E+02    0.15000E+00  0.15000E+00 -0.30000E+00  0.00000E+00  0.00000E+00  0.00000E+00    0.18012E+02  0.18207E+02 -0.36219E+02 -0.22821E+01  0.15799E+01  0.15254E+02      982.00
  0.29667E+00  0.61017E+02    0.16250E+00  0.16250E+00 -0.32500E+00  0.00000E+00  0.00000E+00  0.00000E+00    0.18098E+02  0.18281E+02 -0.36379E+02 -0.22134E+01  0.15668E+01  0.15528E+02      982.00
  0.31902E+00  0.61415E+02    0.17500E+00  0.17500E+00 -0.35000E+00  0.00000E+00  0.00000E+00  0.00000E+00    0.18183E+02  0.18352E+02 -0.36535E+02 -0.21675E+01  0.15526E+01  0.15782E+02      982.00
  0.34133E+00  0.61787E+02    0.18750E+00  0.18750E+00 -0.37500E+00  0.00000E+00  0.00000E+00  0.00000E+00    0.18267E+02  0.18412E+02 -0.36680E+02 -0.21167E+01  0.15395E+01  0.16020E+02      982.00
  0.36359E+00  0.62128E+02    0.20000E+00  0.20000E+00 -0.40000E+00  0.00000E+00  0.00000E+00  0.00000E+00    0.18351E+02  0.18465E+02 -0.36816E+02 -0.20876E+01  0.15295E+01  0.16228E+02      982.00
  0.38582E+00  0.62425E+02    0.21250E+00  0.21250E+00 -0.42500E+00  0.00000E+00  0.00000E+00  0.00000E+00    0.18429E+02  0.18509E+02 -0.36938E+02 -0.20783E+01  0.15220E+01  0.16402E+02      982.00
  0.40801E+00  0.62715E+02    0.22500E+00  0.22500E+00 -0.45000E+00  0.00000E+00  0.00000E+00  0.00000E+00    0.18510E+02  0.18545E+02 -0.37055E+02 -0.20583E+01  0.15158E+01  0.16575E+02      982.00
  0.43016E+00  0.62982E+02    0.23750E+00  0.23750E+00 -0.47500E+00  0.00000E+00  0.00000E+00  0.00000E+00    0.18590E+02  0.18573E+02 -0.37163E+02 -0.20422E+01  0.15118E+01  0.16732E+02      982.00
  0.45229E+00  0.63220E+02    0.25000E+00  0.25000E+00 -0.50000E+00  0.00000E+00  0.00000E+00  0.00000E+00    0.18668E+02  0.18592E+02 -0.37261E+02 -0.20290E+01  0.15092E+01  0.16870E+02      982.00
  0.47439E+00  0.63418E+02    0.26250E+00  0.26250E+00 -0.52500E+00  0.00000E+00  0.00000E+00  0.00000E+00    0.18743E+02  0.18597E+02 -0.37340E+02 -0.20129E+01  0.15073E+01  0.16987E+02      982.00
  0.49647E+00  0.63624E+02    0.27500E+00  0.27500E+00 -0.55000E+00  0.00000E+00  0.00000E+00  0.00000E+00    0.18821E+02  0.18605E+02 -0.37426E+02 -0.20070E+01  0.15074E+01  0.17103E+02      982.00
  0.51853E+00  0.63823E+02    0.28750E+00  0.28750E+00 -0.57500E+00  0.00000E+00  0.00000E+00  0.00000E+00    0.18915E+02  0.18589E+02 -0.37504E+02 -0.19908E+01  0.15039E+01  0.17222E+02      982.00
  0.54057E+00  0.63977E+02    0.30000E+00  0.30000E+00 -0.60000E+00  0.00000E+00  0.00000E+00  0.00000E+00    0.18971E+02  0.18605E+02 -0.37576E+02 -0.20029E+01  0.15093E+01  0.17294E+02      982.00
  0.56259E+00  0.64133E+02    0.31250E+00  0.31250E+00 -0.62500E+00  0.00000E+00  0.00000E+00  0.00000E+00    0.19044E+02  0.18598E+02 -0.37642E+02 -0.20026E+01  0.15099E+01  0.17378E+02      982.00
  0.58460E+00  0.64278E+02    0.32500E+00  0.32500E+00 -0.65000E+00  0.00000E+00  0.00000E+00  0.00000E+00    0.19116E+02  0.18588E+02 -0.37704E+02 -0.20035E+01  0.15115E+01  0.17454E+02      982.00
  0.60660E+00  0.64410E+02    0.33750E+00  0.33750E+00 -0.67500E+00  0.00000E+00  0.00000E+00  0.00000E+00    0.19186E+02  0.18575E+02 -0.37761E+02 -0.20055E+01  0.15133E+01  0.17523E+02      982.00
  0.62858E+00  0.64531E+02    0.35000E+00  0.35000E+00 -0.70000E+00  0.00000E+00  0.00000E+00  0.00000E+00    0.19254E+02  0.18559E+02 -0.37813E+02 -0.20084E+01  0.15151E+01  0.17586E+02      982.00
  0.65056E+00  0.64611E+02    0.36250E+00  0.36250E+00 -0.72500E+00  0.00000E+00  0.00000E+00  0.00000E+00    0.19317E+02  0.18530E+02 -0.37847E+02 -0.20088E+01  0.15158E+01  0.17627E+02      982.00
  0.67252E+00  0.64717E+02    0.37500E+00  0.37500E+00 -0.75000E+00  0.00000E+00  0.00000E+00  0.00000E+00    0.19382E+02  0.18512E+02 -0.37894E+02 -0.20138E+01  0.15181E+01  0.17679E+02      982.00
  0.69448E+00  0.64812E+02    0.38750E+00  0.38750E+00 -0.77500E+00  0.00000E+00  0.00000E+00  0.00000E+00    0.19445E+02  0.18492E+02 -0.37937E+02 -0.20192E+01  0.15200E+01  0.17725E+02      982.00
  0.71643E+00  0.64890E+02    0.40000E+00  0.40000E+00 -0.80000E+00  0.00000E+00  0.00000E+00  0.00000E+00    0.19514E+02  0.18457E+02 -0.37971E+02 -0.20235E+01  0.15212E+01  0.17763E+02      982.00
  0.73837E+00  0.64995E+02    0.41250E+00  0.41250E+00 -0.82500E+00  0.00000E+00  0.00000E+00  0.00000E+00    0.19600E+02  0.18417E+02 -0.38017E+02 -0.20303E+01  0.15234E+01  0.17815E+02      982.00
  0.76031E+00  0.65068E+02    0.42500E+00  0.42500E+00 -0.85000E+00  0.00000E+00  0.00000E+00  0.00000E+00    0.19658E+02  0.18392E+02 -0.38051E+02 -0.20370E+01  0.15257E+01  0.17847E+02      982.00
  0.78224E+00  0.65134E+02    0.43750E+00  0.43750E+00 -0.87500E+00  0.00000E+00  0.00000E+00  0.00000E+00    0.19713E+02  0.18369E+02 -0.38081E+02 -0.20437E+01  0.15279E+01  0.17876E+02      982.00
  0.80416E+00  0.65196E+02    0.45000E+00  0.45000E+00 -0.90000E+00  0.00000E+00  0.00000E+00  0.00000E+00    0.19766E+02  0.18345E+02 -0.38110E+02 -0.20504E+01  0.15300E+01  0.17903E+02      982.00
  0.82608E+00  0.65254E+02    0.46250E+00  0.46250E+00 -0.92500E+00  0.00000E+00  0.00000E+00  0.00000E+00    0.19817E+02  0.18321E+02 -0.38137E+02 -0.20571E+01  0.15320E+01  0.17927E+02      982.00
  0.84800E+00  0.65308E+02    0.47500E+00  0.47500E+00 -0.95000E+00  0.00000E+00  0.00000E+00  0.00000E+00    0.19866E+02  0.18297E+02 -0.38163E+02 -0.20637E+01  0.15341E+01  0.17950E+02      982.00
  0.86991E+00  0.65313E+02    0.48750E+00  0.48750E+00 -0.97500E+00  0.00000E+00  0.00000E+00  0.00000E+00    0.19848E+02  0.18318E+02 -0.38166E+02 -0.20592E+01  0.15377E+01  0.17952E+02      982.00
  0.89183E+00  0.65331E+02    0.50000E+00  0.50000E+00 -0.10000E+01  0.00000E+00  0.00000E+00  0.00000E+00    0.19951E+02  0.18219E+02 -0.38170E+02 -0.20592E+01  0.15304E+01  0.17962E+02      982.00
