          Evm          Svm            E11          E22          E33          E23          E13          E12         SDEV11       SDEV22       SDEV33       SDEV23       SDEV13       SDEV12      TEMP
  0.00000E+00  0.49298E+02    0.00000E+00  0.00000E+00  0.00000E+00  0.00000E+00  0.00000E+00  0.00000E+00    0.10355E+02  0.20364E+02 -0.30719E+02 -0.55567E+01 -0.33684E+01 -0.59220E+01      982.00
  0.23368E-01  0.49952E+02    0.12500E-01  0.12500E-01 -0.25000E-01  0.00000E+00  0.00000E+00  0.00000E+00    0.10694E+02  0.20245E+02 -0.30939E+02 -0.58592E+01 -0.37671E+01 -0.65181E+01      982.00
  0.46594E-01  0.50575E+02    0.25000E-01  0.25000E-01 -0.50000E-01  0.00000E+00  0.00000E+00  0.00000E+00    0.10987E+02  0.20195E+02 -0.31182E+02 -0.60689E+01 -0.40560E+01 -0.69931E+01      982.00
  0.69715E-01  0.51179E+02    0.37500E-01  0.37500E-01 -0.75000E-01  0.00000E+00  0.00000E+00  0.00000E+00    0.11255E+02  0.20188E+02 -0.31443E+02 -0.62215E+01 -0.42787E+01 -0.73924E+01      982.00
  0.92753E-01  0.51763E+02    0.50000E-01  0.50000E-01 -0.10000E+00  0.00000E+00  0.00000E+00  0.00000E+00    0.11503E+02  0.20214E+02 -0.31717E+02 -0.63300E+01 -0.44499E+01 -0.77347E+01      982.00
  0.11573E+00  0.52327E+02    0.62500E-01  0.62500E-01 -0.12500E+00  0.00000E+00  0.00000E+00  0.00000E+00    0.11729E+02  0.20272E+02 -0.32001E+02 -0.64005E+01 -0.45760E+01 -0.80303E+01      982.00
  0.13866E+00  0.52878E+02    0.75000E-01  0.75000E-01 -0.15000E+00  0.00000E+00  0.00000E+00  0.00000E+00    0.11944E+02  0.20352E+02 -0.32296E+02 -0.64410E+01 -0.46709E+01 -0.82924E+01      982.00
  0.16157E+00  0.53411E+02    0.87500E-01  0.87500E-01 -0.17500E+00  0.00000E+00  0.00000E+00  0.00000E+00    0.12144E+02  0.20452E+02 -0.32596E+02 -0.64577E+01 -0.47382E+01 -0.85212E+01      982.00
  0.18445E+00  0.53935E+02    0.10000E+00  0.10000E+00 -0.20000E+00  0.00000E+00  0.00000E+00  0.00000E+00    0.12325E+02  0.20577E+02 -0.32902E+02 -0.64557E+01 -0.47805E+01 -0.87289E+01      982.00
  0.20733E+00  0.54461E+02    0.11250E+00  0.11250E+00 -0.22500E+00  0.00000E+00  0.00000E+00  0.00000E+00    0.12497E+02  0.20719E+02 -0.33216E+02 -0.64404E+01 -0.48085E+01 -0.89266E+01      982.00
  0.23020E+00  0.54995E+02    0.12500E+00  0.12500E+00 -0.25000E+00  0.00000E+00  0.00000E+00  0.00000E+00    0.12666E+02  0.20874E+02 -0.33540E+02 -0.64155E+01 -0.48265E+01 -0.91200E+01      982.00
  0.25307E+00  0.55546E+02    0.13750E+00  0.13750E+00 -0.27500E+00  0.00000E+00  0.00000E+00  0.00000E+00    0.12840E+02  0.21039E+02 -0.33879E+02 -0.63816E+01 -0.48383E+01 -0.93109E+01      982.00
  0.27594E+00  0.56071E+02    0.15000E+00  0.15000E+00 -0.30000E+00  0.00000E+00  0.00000E+00  0.00000E+00    0.13016E+02  0.21198E+02 -0.34214E+02 -0.63383E+01 -0.48370E+01 -0.94731E+01      982.00
  0.29883E+00  0.56599E+02    0.16250E+00  0.16250E+00 -0.32500E+00  0.00000E+00  0.00000E+00  0.00000E+00    0.13199E+02  0.21355E+02 -0.34554E+02 -0.62938E+01 -0.48333E+01 -0.96285E+01      982.00
  0.32172E+00  0.57127E+02    0.17500E+00  0.17500E+00 -0.35000E+00  0.00000E+00  0.00000E+00  0.00000E+00    0.13392E+02  0.21506E+02 -0.34898E+02 -0.62501E+01 -0.48288E+01 -0.97773E+01      982.00
  0.34463E+00  0.57654E+02    0.18750E+00  0.18750E+00 -0.37500E+00  0.00000E+00  0.00000E+00  0.00000E+00    0.13596E+02  0.21648E+02 -0.35244E+02 -0.62082E+01 -0.48238E+01 -0.99190E+01      982.00
  0.36755E+00  0.58178E+02    0.20000E+00  0.20000E+00 -0.40000E+00  0.00000E+00  0.00000E+00  0.00000E+00    0.13811E+02  0.21780E+02 -0.35591E+02 -0.61692E+01 -0.48185E+01 -0.10053E+02      982.00
  0.39049E+00  0.58697E+02    0.21250E+00  0.21250E+00 -0.42500E+00  0.00000E+00  0.00000E+00  0.00000E+00    0.14038E+02  0.21900E+02 -0.35937E+02 -0.61335E+01 -0.48125E+01 -0.10179E+02      982.00
  0.41345E+00  0.59182E+02    0.22500E+00  0.22500E+00 -0.45000E+00  0.00000E+00  0.00000E+00  0.00000E+00    0.14256E+02  0.22009E+02 -0.36266E+02 -0.61034E+01 -0.47987E+01 -0.10286E+02      982.00
  0.43643E+00  0.59685E+02    0.23750E+00  0.23750E+00 -0.47500E+00  0.00000E+00  0.00000E+00  0.00000E+00    0.14500E+02  0.22107E+02 -0.36607E+02 -0.60757E+01 -0.47902E+01 -0.10396E+02      982.00
  0.45943E+00  0.60176E+02    0.25000E+00  0.25000E+00 -0.50000E+00  0.00000E+00  0.00000E+00  0.00000E+00    0.14753E+02  0.22190E+02 -0.36943E+02 -0.60511E+01 -0.47804E+01 -0.10495E+02      982.00
  0.48245E+00  0.60653E+02    0.26250E+00  0.26250E+00 -0.52500E+00  0.00000E+00  0.00000E+00  0.00000E+00    0.15013E+02  0.22261E+02 -0.37274E+02 -0.60296E+01 -0.47686E+01 -0.10584E+02      982.00
  0.50550E+00  0.61115E+02    0.27500E+00  0.27500E+00 -0.55000E+00  0.00000E+00  0.00000E+00  0.00000E+00    0.15280E+02  0.22318E+02 -0.37598E+02 -0.60109E+01 -0.47546E+01 -0.10663E+02      982.00
  0.52857E+00  0.61561E+02    0.28750E+00  0.28750E+00 -0.57500E+00  0.00000E+00  0.00000E+00  0.00000E+00    0.15552E+02  0.22362E+02 -0.37914E+02 -0.59948E+01 -0.47380E+01 -0.10732E+02      982.00
  0.55166E+00  0.61990E+02    0.30000E+00  0.30000E+00 -0.60000E+00  0.00000E+00  0.00000E+00  0.00000E+00    0.15827E+02  0.22395E+02 -0.38222E+02 -0.59807E+01 -0.47188E+01 -0.10791E+02      982.00
  0.57479E+00  0.62402E+02    0.31250E+00  0.31250E+00 -0.62500E+00  0.00000E+00  0.00000E+00  0.00000E+00    0.16105E+02  0.22416E+02 -0.38520E+02 -0.59684E+01 -0.46968E+01 -0.10840E+02      982.00
  0.59793E+00  0.62793E+02    0.32500E+00  0.32500E+00 -0.65000E+00  0.00000E+00  0.00000E+00  0.00000E+00    0.16383E+02  0.22426E+02 -0.38809E+02 -0.59545E+01 -0.46707E+01 -0.10878E+02      982.00
  0.62111E+00  0.63168E+02    0.33750E+00  0.33750E+00 -0.67500E+00  0.00000E+00  0.00000E+00  0.00000E+00    0.16661E+02  0.22426E+02 -0.39087E+02 -0.59447E+01 -0.46434E+01 -0.10908E+02      982.00
  0.64432E+00  0.63525E+02    0.35000E+00  0.35000E+00 -0.70000E+00  0.00000E+00  0.00000E+00  0.00000E+00    0.16938E+02  0.22417E+02 -0.39356E+02 -0.59359E+01 -0.46135E+01 -0.10930E+02      982.00
  0.66755E+00  0.63863E+02    0.36250E+00  0.36250E+00 -0.72500E+00  0.00000E+00  0.00000E+00  0.00000E+00    0.17214E+02  0.22400E+02 -0.39613E+02 -0.59277E+01 -0.45812E+01 -0.10943E+02      982.00
  0.69081E+00  0.64174E+02    0.37500E+00  0.37500E+00 -0.75000E+00  0.00000E+00  0.00000E+00  0.00000E+00    0.17494E+02  0.22360E+02 -0.39854E+02 -0.59245E+01 -0.45485E+01 -0.10945E+02      982.00
  0.71410E+00  0.64478E+02    0.38750E+00  0.38750E+00 -0.77500E+00  0.00000E+00  0.00000E+00  0.00000E+00    0.17763E+02  0.22329E+02 -0.40091E+02 -0.59167E+01 -0.45108E+01 -0.10943E+02      982.00
  0.73741E+00  0.64764E+02    0.40000E+00  0.40000E+00 -0.80000E+00  0.00000E+00  0.00000E+00  0.00000E+00    0.18027E+02  0.22290E+02 -0.40318E+02 -0.59093E+01 -0.44714E+01 -0.10934E+02      982.00
  0.76076E+00  0.65035E+02    0.41250E+00  0.41250E+00 -0.82500E+00  0.00000E+00  0.00000E+00  0.00000E+00    0.18287E+02  0.22246E+02 -0.40533E+02 -0.59022E+01 -0.44304E+01 -0.10919E+02      982.00
  0.78413E+00  0.65289E+02    0.42500E+00  0.42500E+00 -0.85000E+00  0.00000E+00  0.00000E+00  0.00000E+00    0.18542E+02  0.22197E+02 -0.40739E+02 -0.58954E+01 -0.43881E+01 -0.10899E+02      982.00
  0.80753E+00  0.65529E+02    0.43750E+00  0.43750E+00 -0.87500E+00  0.00000E+00  0.00000E+00  0.00000E+00    0.18792E+02  0.22143E+02 -0.40935E+02 -0.58887E+01 -0.43446E+01 -0.10873E+02      982.00
  0.83096E+00  0.65754E+02    0.45000E+00  0.45000E+00 -0.90000E+00  0.00000E+00  0.00000E+00  0.00000E+00    0.19037E+02  0.22085E+02 -0.41121E+02 -0.58823E+01 -0.43001E+01 -0.10842E+02      982.00
  0.85441E+00  0.65966E+02    0.46250E+00  0.46250E+00 -0.92500E+00  0.00000E+00  0.00000E+00  0.00000E+00    0.19276E+02  0.22022E+02 -0.41298E+02 -0.58762E+01 -0.42549E+01 -0.10807E+02      982.00
  0.87789E+00  0.66164E+02    0.47500E+00  0.47500E+00 -0.95000E+00  0.00000E+00  0.00000E+00  0.00000E+00    0.19510E+02  0.21956E+02 -0.41466E+02 -0.58704E+01 -0.42090E+01 -0.10768E+02      982.00
  0.90139E+00  0.66350E+02    0.48750E+00  0.48750E+00 -0.97500E+00  0.00000E+00  0.00000E+00  0.00000E+00    0.19738E+02  0.21887E+02 -0.41625E+02 -0.58651E+01 -0.41628E+01 -0.10726E+02      982.00
  0.92491E+00  0.66463E+02    0.50000E+00  0.50000E+00 -0.10000E+01  0.00000E+00  0.00000E+00  0.00000E+00    0.19915E+02  0.21828E+02 -0.41743E+02 -0.58183E+01 -0.41070E+01 -0.10673E+02      982.00
