          Evm          Svm            E11          E22          E33          E23          E13          E12         SDEV11       SDEV22       SDEV33       SDEV23       SDEV13       SDEV12      TEMP
  0.00000E+00  0.52590E+02    0.00000E+00  0.00000E+00  0.00000E+00  0.00000E+00  0.00000E+00  0.00000E+00    0.12192E+02  0.21673E+02 -0.33866E+02 -0.36798E+01 -0.50607E+01 -0.35562E+00      982.00
  0.24148E-01  0.52663E+02    0.12500E-01  0.12500E-01 -0.25000E-01  0.00000E+00  0.00000E+00  0.00000E+00    0.12108E+02  0.21799E+02 -0.33907E+02 -0.34213E+01 -0.51796E+01 -0.42020E+00      982.00
  0.48293E-01  0.52794E+02    0.25000E-01  0.25000E-01 -0.50000E-01  0.00000E+00  0.00000E+00  0.00000E+00    0.12041E+02  0.21944E+02 -0.33985E+02 -0.32088E+01 -0.52731E+01 -0.47325E+00      982.00
  0.72432E-01  0.53005E+02    0.37500E-01  0.37500E-01 -0.75000E-01  0.00000E+00  0.00000E+00  0.00000E+00    0.11985E+02  0.22122E+02 -0.34107E+02 -0.30258E+01 -0.53769E+01 -0.52291E+00      982.00
  0.96563E-01  0.53301E+02    0.50000E-01  0.50000E-01 -0.10000E+00  0.00000E+00  0.00000E+00  0.00000E+00    0.11943E+02  0.22335E+02 -0.34278E+02 -0.28686E+01 -0.54966E+01 -0.56952E+00      982.00
  0.12068E+00  0.53688E+02    0.62500E-01  0.62500E-01 -0.12500E+00  0.00000E+00  0.00000E+00  0.00000E+00    0.11915E+02  0.22585E+02 -0.34500E+02 -0.27318E+01 -0.56389E+01 -0.61517E+00      982.00
  0.14478E+00  0.54155E+02    0.75000E-01  0.75000E-01 -0.15000E+00  0.00000E+00  0.00000E+00  0.00000E+00    0.11904E+02  0.22866E+02 -0.34770E+02 -0.26161E+01 -0.57952E+01 -0.65611E+00      982.00
  0.16885E+00  0.54691E+02    0.87500E-01  0.87500E-01 -0.17500E+00  0.00000E+00  0.00000E+00  0.00000E+00    0.11908E+02  0.23171E+02 -0.35079E+02 -0.25150E+01 -0.59678E+01 -0.69497E+00      982.00
  0.19291E+00  0.55281E+02    0.10000E+00  0.10000E+00 -0.20000E+00  0.00000E+00  0.00000E+00  0.00000E+00    0.11928E+02  0.23492E+02 -0.35421E+02 -0.24236E+01 -0.61522E+01 -0.73278E+00      982.00
  0.21693E+00  0.55914E+02    0.11250E+00  0.11250E+00 -0.22500E+00  0.00000E+00  0.00000E+00  0.00000E+00    0.11965E+02  0.23824E+02 -0.35789E+02 -0.23341E+01 -0.63459E+01 -0.77270E+00      982.00
  0.24094E+00  0.56565E+02    0.12500E+00  0.12500E+00 -0.25000E+00  0.00000E+00  0.00000E+00  0.00000E+00    0.12015E+02  0.24155E+02 -0.36170E+02 -0.22506E+01 -0.65394E+01 -0.81162E+00      982.00
  0.26492E+00  0.57225E+02    0.13750E+00  0.13750E+00 -0.27500E+00  0.00000E+00  0.00000E+00  0.00000E+00    0.12078E+02  0.24481E+02 -0.36559E+02 -0.21673E+01 -0.67302E+01 -0.85201E+00      982.00
  0.28887E+00  0.57881E+02    0.15000E+00  0.15000E+00 -0.30000E+00  0.00000E+00  0.00000E+00  0.00000E+00    0.12151E+02  0.24796E+02 -0.36947E+02 -0.20826E+01 -0.69148E+01 -0.89422E+00      982.00
  0.31281E+00  0.58524E+02    0.16250E+00  0.16250E+00 -0.32500E+00  0.00000E+00  0.00000E+00  0.00000E+00    0.12233E+02  0.25098E+02 -0.37331E+02 -0.19957E+01 -0.70898E+01 -0.93807E+00      982.00
  0.33673E+00  0.59146E+02    0.17500E+00  0.17500E+00 -0.35000E+00  0.00000E+00  0.00000E+00  0.00000E+00    0.12321E+02  0.25384E+02 -0.37704E+02 -0.19066E+01 -0.72531E+01 -0.98301E+00      982.00
  0.36063E+00  0.59745E+02    0.18750E+00  0.18750E+00 -0.37500E+00  0.00000E+00  0.00000E+00  0.00000E+00    0.12414E+02  0.25653E+02 -0.38067E+02 -0.18109E+01 -0.74047E+01 -0.10317E+01      982.00
  0.38453E+00  0.60313E+02    0.20000E+00  0.20000E+00 -0.40000E+00  0.00000E+00  0.00000E+00  0.00000E+00    0.12510E+02  0.25904E+02 -0.38414E+02 -0.17186E+01 -0.75404E+01 -0.10766E+01      982.00
  0.40841E+00  0.60850E+02    0.21250E+00  0.21250E+00 -0.42500E+00  0.00000E+00  0.00000E+00  0.00000E+00    0.12606E+02  0.26139E+02 -0.38745E+02 -0.16262E+01 -0.76614E+01 -0.11197E+01      982.00
  0.43229E+00  0.61362E+02    0.22500E+00  0.22500E+00 -0.45000E+00  0.00000E+00  0.00000E+00  0.00000E+00    0.12703E+02  0.26360E+02 -0.39063E+02 -0.15358E+01 -0.77663E+01 -0.11595E+01      982.00
  0.45616E+00  0.61835E+02    0.23750E+00  0.23750E+00 -0.47500E+00  0.00000E+00  0.00000E+00  0.00000E+00    0.12799E+02  0.26561E+02 -0.39360E+02 -0.14394E+01 -0.78579E+01 -0.12009E+01      982.00
  0.48003E+00  0.62280E+02    0.25000E+00  0.25000E+00 -0.50000E+00  0.00000E+00  0.00000E+00  0.00000E+00    0.12892E+02  0.26749E+02 -0.39641E+02 -0.13497E+01 -0.79384E+01 -0.12340E+01      982.00
  0.50390E+00  0.62695E+02    0.26250E+00  0.26250E+00 -0.52500E+00  0.00000E+00  0.00000E+00  0.00000E+00    0.12982E+02  0.26924E+02 -0.39906E+02 -0.12623E+01 -0.80066E+01 -0.12624E+01      982.00
  0.52777E+00  0.63083E+02    0.27500E+00  0.27500E+00 -0.55000E+00  0.00000E+00  0.00000E+00  0.00000E+00    0.13069E+02  0.27087E+02 -0.40155E+02 -0.11769E+01 -0.80627E+01 -0.12858E+01      982.00
  0.55164E+00  0.63437E+02    0.28750E+00  0.28750E+00 -0.57500E+00  0.00000E+00  0.00000E+00  0.00000E+00    0.13151E+02  0.27233E+02 -0.40384E+02 -0.10884E+01 -0.81105E+01 -0.13088E+01      982.00
  0.57551E+00  0.63774E+02    0.30000E+00  0.30000E+00 -0.60000E+00  0.00000E+00  0.00000E+00  0.00000E+00    0.13230E+02  0.27374E+02 -0.40604E+02 -0.10080E+01 -0.81493E+01 -0.13220E+01      982.00
  0.59939E+00  0.64088E+02    0.31250E+00  0.31250E+00 -0.62500E+00  0.00000E+00  0.00000E+00  0.00000E+00    0.13305E+02  0.27505E+02 -0.40810E+02 -0.93076E+00 -0.81803E+01 -0.13296E+01      982.00
  0.62327E+00  0.64379E+02    0.32500E+00  0.32500E+00 -0.65000E+00  0.00000E+00  0.00000E+00  0.00000E+00    0.13376E+02  0.27628E+02 -0.41004E+02 -0.85611E+00 -0.82046E+01 -0.13319E+01      982.00
  0.64715E+00  0.64651E+02    0.33750E+00  0.33750E+00 -0.67500E+00  0.00000E+00  0.00000E+00  0.00000E+00    0.13442E+02  0.27742E+02 -0.41185E+02 -0.78391E+00 -0.82231E+01 -0.13291E+01      982.00
  0.67104E+00  0.64903E+02    0.35000E+00  0.35000E+00 -0.70000E+00  0.00000E+00  0.00000E+00  0.00000E+00    0.13505E+02  0.27849E+02 -0.41354E+02 -0.71407E+00 -0.82367E+01 -0.13214E+01      982.00
  0.69493E+00  0.65138E+02    0.36250E+00  0.36250E+00 -0.72500E+00  0.00000E+00  0.00000E+00  0.00000E+00    0.13564E+02  0.27948E+02 -0.41513E+02 -0.64648E+00 -0.82462E+01 -0.13088E+01      982.00
  0.71883E+00  0.65357E+02    0.37500E+00  0.37500E+00 -0.75000E+00  0.00000E+00  0.00000E+00  0.00000E+00    0.13619E+02  0.28042E+02 -0.41661E+02 -0.58102E+00 -0.82523E+01 -0.12918E+01      982.00
  0.74274E+00  0.65554E+02    0.38750E+00  0.38750E+00 -0.77500E+00  0.00000E+00  0.00000E+00  0.00000E+00    0.13670E+02  0.28125E+02 -0.41795E+02 -0.51176E+00 -0.82567E+01 -0.12750E+01      982.00
  0.76665E+00  0.65750E+02    0.40000E+00  0.40000E+00 -0.80000E+00  0.00000E+00  0.00000E+00  0.00000E+00    0.13719E+02  0.28210E+02 -0.41930E+02 -0.45538E+00 -0.82567E+01 -0.12451E+01      982.00
  0.79056E+00  0.65921E+02    0.41250E+00  0.41250E+00 -0.82500E+00  0.00000E+00  0.00000E+00  0.00000E+00    0.13764E+02  0.28284E+02 -0.42048E+02 -0.39049E+00 -0.82563E+01 -0.12204E+01      982.00
  0.81448E+00  0.66090E+02    0.42500E+00  0.42500E+00 -0.85000E+00  0.00000E+00  0.00000E+00  0.00000E+00    0.13807E+02  0.28358E+02 -0.42165E+02 -0.33718E+00 -0.82536E+01 -0.11827E+01      982.00
  0.83840E+00  0.66243E+02    0.43750E+00  0.43750E+00 -0.87500E+00  0.00000E+00  0.00000E+00  0.00000E+00    0.13846E+02  0.28425E+02 -0.42271E+02 -0.28090E+00 -0.82502E+01 -0.11459E+01      982.00
  0.86233E+00  0.66301E+02    0.45000E+00  0.45000E+00 -0.90000E+00  0.00000E+00  0.00000E+00  0.00000E+00    0.13874E+02  0.28457E+02 -0.42330E+02 -0.23331E+00 -0.81813E+01 -0.11064E+01      982.00
  0.88628E+00  0.66363E+02    0.46250E+00  0.46250E+00 -0.92500E+00  0.00000E+00  0.00000E+00  0.00000E+00    0.13899E+02  0.28488E+02 -0.42387E+02 -0.18322E+00 -0.81302E+01 -0.10653E+01      982.00
  0.91023E+00  0.66421E+02    0.47500E+00  0.47500E+00 -0.95000E+00  0.00000E+00  0.00000E+00  0.00000E+00    0.13922E+02  0.28519E+02 -0.42441E+02 -0.13401E+00 -0.80824E+01 -0.10223E+01      982.00
  0.93419E+00  0.66484E+02    0.48750E+00  0.48750E+00 -0.97500E+00  0.00000E+00  0.00000E+00  0.00000E+00    0.13946E+02  0.28551E+02 -0.42497E+02 -0.85740E-01 -0.80367E+01 -0.97596E+00      982.00
  0.95816E+00  0.66534E+02    0.50000E+00  0.50000E+00 -0.10000E+01  0.00000E+00  0.00000E+00  0.00000E+00    0.13966E+02  0.28578E+02 -0.42544E+02 -0.39028E-01 -0.79938E+01 -0.92921E+00      982.00
