          Evm          Svm            E11          E22          E33          E23          E13          E12         SDEV11       SDEV22       SDEV33       SDEV23       SDEV13       SDEV12      TEMP
  0.00000E+00  0.61996E+02    0.00000E+00  0.00000E+00  0.00000E+00  0.00000E+00  0.00000E+00  0.00000E+00    0.17418E+02  0.22092E+02 -0.39510E+02  0.62717E+01 -0.33776E+01  0.73588E+01      982.00
  0.23899E-01  0.62360E+02    0.12500E-01  0.12500E-01 -0.25000E-01  0.00000E+00  0.00000E+00  0.00000E+00    0.18519E+02  0.21190E+02 -0.39708E+02  0.60554E+01 -0.38060E+01  0.77928E+01      982.00
  0.47778E-01  0.62661E+02    0.25000E-01  0.25000E-01 -0.50000E-01  0.00000E+00  0.00000E+00  0.00000E+00    0.19438E+02  0.20420E+02 -0.39858E+02  0.58187E+01 -0.41208E+01  0.81381E+01      982.00
  0.71631E-01  0.62891E+02    0.37500E-01  0.37500E-01 -0.75000E-01  0.00000E+00  0.00000E+00  0.00000E+00    0.20125E+02  0.19842E+02 -0.39967E+02  0.55783E+01 -0.42935E+01  0.84182E+01      982.00
  0.95462E-01  0.63083E+02    0.50000E-01  0.50000E-01 -0.10000E+00  0.00000E+00  0.00000E+00  0.00000E+00    0.20608E+02  0.19449E+02 -0.40057E+02  0.53489E+01 -0.43464E+01  0.86750E+01      982.00
  0.11927E+00  0.63266E+02    0.62500E-01  0.62500E-01 -0.12500E+00  0.00000E+00  0.00000E+00  0.00000E+00    0.20949E+02  0.19192E+02 -0.40141E+02  0.51292E+01 -0.43299E+01  0.89378E+01      982.00
  0.14307E+00  0.63456E+02    0.75000E-01  0.75000E-01 -0.15000E+00  0.00000E+00  0.00000E+00  0.00000E+00    0.21190E+02  0.19036E+02 -0.40226E+02  0.49215E+01 -0.42764E+01  0.92173E+01      982.00
  0.16684E+00  0.63667E+02    0.87500E-01  0.87500E-01 -0.17500E+00  0.00000E+00  0.00000E+00  0.00000E+00    0.21364E+02  0.18953E+02 -0.40317E+02  0.47270E+01 -0.42102E+01  0.95143E+01      982.00
  0.19059E+00  0.63898E+02    0.10000E+00  0.10000E+00 -0.20000E+00  0.00000E+00  0.00000E+00  0.00000E+00    0.21484E+02  0.18931E+02 -0.40415E+02  0.45490E+01 -0.41396E+01  0.98237E+01      982.00
  0.21430E+00  0.64149E+02    0.11250E+00  0.11250E+00 -0.22500E+00  0.00000E+00  0.00000E+00  0.00000E+00    0.21571E+02  0.18947E+02 -0.40518E+02  0.43850E+01 -0.40765E+01  0.10143E+02      982.00
  0.23799E+00  0.64417E+02    0.12500E+00  0.12500E+00 -0.25000E+00  0.00000E+00  0.00000E+00  0.00000E+00    0.21632E+02  0.18991E+02 -0.40623E+02  0.42351E+01 -0.40242E+01  0.10470E+02      982.00
  0.26164E+00  0.64683E+02    0.13750E+00  0.13750E+00 -0.27500E+00  0.00000E+00  0.00000E+00  0.00000E+00    0.21669E+02  0.19053E+02 -0.40723E+02  0.41010E+01 -0.39857E+01  0.10791E+02      982.00
  0.28525E+00  0.64965E+02    0.15000E+00  0.15000E+00 -0.30000E+00  0.00000E+00  0.00000E+00  0.00000E+00    0.21693E+02  0.19135E+02 -0.40828E+02  0.39869E+01 -0.39556E+01  0.11110E+02      982.00
  0.30881E+00  0.65252E+02    0.16250E+00  0.16250E+00 -0.32500E+00  0.00000E+00  0.00000E+00  0.00000E+00    0.21709E+02  0.19224E+02 -0.40934E+02  0.38951E+01 -0.39332E+01  0.11419E+02      982.00
  0.33234E+00  0.65537E+02    0.17500E+00  0.17500E+00 -0.35000E+00  0.00000E+00  0.00000E+00  0.00000E+00    0.21717E+02  0.19314E+02 -0.41031E+02  0.38092E+01 -0.39333E+01  0.11730E+02      982.00
  0.35582E+00  0.65817E+02    0.18750E+00  0.18750E+00 -0.37500E+00  0.00000E+00  0.00000E+00  0.00000E+00    0.21714E+02  0.19408E+02 -0.41122E+02  0.37374E+01 -0.39455E+01  0.12035E+02      982.00
  0.37925E+00  0.66089E+02    0.20000E+00  0.20000E+00 -0.40000E+00  0.00000E+00  0.00000E+00  0.00000E+00    0.21701E+02  0.19502E+02 -0.41203E+02  0.36788E+01 -0.39687E+01  0.12335E+02      982.00
  0.40263E+00  0.66355E+02    0.21250E+00  0.21250E+00 -0.42500E+00  0.00000E+00  0.00000E+00  0.00000E+00    0.21685E+02  0.19590E+02 -0.41275E+02  0.36328E+01 -0.40015E+01  0.12635E+02      982.00
  0.42595E+00  0.66597E+02    0.22500E+00  0.22500E+00 -0.45000E+00  0.00000E+00  0.00000E+00  0.00000E+00    0.21649E+02  0.19681E+02 -0.41330E+02  0.35978E+01 -0.40443E+01  0.12921E+02      982.00
  0.44923E+00  0.66829E+02    0.23750E+00  0.23750E+00 -0.47500E+00  0.00000E+00  0.00000E+00  0.00000E+00    0.21610E+02  0.19763E+02 -0.41374E+02  0.35737E+01 -0.40939E+01  0.13210E+02      982.00
  0.47244E+00  0.67046E+02    0.25000E+00  0.25000E+00 -0.50000E+00  0.00000E+00  0.00000E+00  0.00000E+00    0.21562E+02  0.19840E+02 -0.41402E+02  0.35594E+01 -0.41508E+01  0.13497E+02      982.00
  0.49560E+00  0.67247E+02    0.26250E+00  0.26250E+00 -0.52500E+00  0.00000E+00  0.00000E+00  0.00000E+00    0.21505E+02  0.19908E+02 -0.41414E+02  0.35539E+01 -0.42135E+01  0.13785E+02      982.00
  0.51869E+00  0.67430E+02    0.27500E+00  0.27500E+00 -0.55000E+00  0.00000E+00  0.00000E+00  0.00000E+00    0.21440E+02  0.19969E+02 -0.41409E+02  0.35561E+01 -0.42812E+01  0.14074E+02      982.00
  0.54172E+00  0.67590E+02    0.28750E+00  0.28750E+00 -0.57500E+00  0.00000E+00  0.00000E+00  0.00000E+00    0.21360E+02  0.20025E+02 -0.41385E+02  0.35631E+01 -0.43522E+01  0.14359E+02      982.00
  0.56468E+00  0.67745E+02    0.30000E+00  0.30000E+00 -0.60000E+00  0.00000E+00  0.00000E+00  0.00000E+00    0.21279E+02  0.20067E+02 -0.41347E+02  0.35733E+01 -0.44260E+01  0.14660E+02      982.00
  0.58757E+00  0.67881E+02    0.31250E+00  0.31250E+00 -0.62500E+00  0.00000E+00  0.00000E+00  0.00000E+00    0.21183E+02  0.20104E+02 -0.41287E+02  0.35873E+01 -0.45030E+01  0.14968E+02      982.00
  0.61038E+00  0.67997E+02    0.32500E+00  0.32500E+00 -0.65000E+00  0.00000E+00  0.00000E+00  0.00000E+00    0.21082E+02  0.20123E+02 -0.41206E+02  0.36076E+01 -0.45786E+01  0.15282E+02      982.00
  0.63310E+00  0.68096E+02    0.33750E+00  0.33750E+00 -0.67500E+00  0.00000E+00  0.00000E+00  0.00000E+00    0.20974E+02  0.20129E+02 -0.41103E+02  0.36280E+01 -0.46526E+01  0.15607E+02      982.00
  0.65574E+00  0.68179E+02    0.35000E+00  0.35000E+00 -0.70000E+00  0.00000E+00  0.00000E+00  0.00000E+00    0.20858E+02  0.20123E+02 -0.40980E+02  0.36464E+01 -0.47228E+01  0.15944E+02      982.00
  0.67828E+00  0.68255E+02    0.36250E+00  0.36250E+00 -0.72500E+00  0.00000E+00  0.00000E+00  0.00000E+00    0.20726E+02  0.20111E+02 -0.40837E+02  0.36536E+01 -0.47901E+01  0.16303E+02      982.00
  0.70071E+00  0.68306E+02    0.37500E+00  0.37500E+00 -0.75000E+00  0.00000E+00  0.00000E+00  0.00000E+00    0.20592E+02  0.20079E+02 -0.40672E+02  0.36597E+01 -0.48441E+01  0.16663E+02      982.00
  0.72304E+00  0.68341E+02    0.38750E+00  0.38750E+00 -0.77500E+00  0.00000E+00  0.00000E+00  0.00000E+00    0.20453E+02  0.20033E+02 -0.40486E+02  0.36555E+01 -0.48858E+01  0.17035E+02      982.00
  0.74526E+00  0.68361E+02    0.40000E+00  0.40000E+00 -0.80000E+00  0.00000E+00  0.00000E+00  0.00000E+00    0.20307E+02  0.19975E+02 -0.40282E+02  0.36383E+01 -0.49122E+01  0.17418E+02      982.00
  0.76736E+00  0.68368E+02    0.41250E+00  0.41250E+00 -0.82500E+00  0.00000E+00  0.00000E+00  0.00000E+00    0.20157E+02  0.19904E+02 -0.40061E+02  0.36050E+01 -0.49198E+01  0.17809E+02      982.00
  0.78933E+00  0.68360E+02    0.42500E+00  0.42500E+00 -0.85000E+00  0.00000E+00  0.00000E+00  0.00000E+00    0.20003E+02  0.19823E+02 -0.39826E+02  0.35531E+01 -0.49058E+01  0.18205E+02      982.00
  0.81118E+00  0.68344E+02    0.43750E+00  0.43750E+00 -0.87500E+00  0.00000E+00  0.00000E+00  0.00000E+00    0.19853E+02  0.19727E+02 -0.39580E+02  0.34956E+01 -0.48759E+01  0.18602E+02      982.00
  0.83289E+00  0.68315E+02    0.45000E+00  0.45000E+00 -0.90000E+00  0.00000E+00  0.00000E+00  0.00000E+00    0.19697E+02  0.19631E+02 -0.39327E+02  0.34033E+01 -0.48150E+01  0.18998E+02      982.00
  0.85448E+00  0.68287E+02    0.46250E+00  0.46250E+00 -0.92500E+00  0.00000E+00  0.00000E+00  0.00000E+00    0.19546E+02  0.19528E+02 -0.39073E+02  0.33009E+01 -0.47373E+01  0.19391E+02      982.00
  0.87594E+00  0.68242E+02    0.47500E+00  0.47500E+00 -0.95000E+00  0.00000E+00  0.00000E+00  0.00000E+00    0.19395E+02  0.19425E+02 -0.38820E+02  0.31641E+01 -0.46239E+01  0.19765E+02      982.00
  0.89727E+00  0.68194E+02    0.48750E+00  0.48750E+00 -0.97500E+00  0.00000E+00  0.00000E+00  0.00000E+00    0.19252E+02  0.19323E+02 -0.38575E+02  0.30114E+01 -0.44903E+01  0.20122E+02      982.00
  0.91848E+00  0.68100E+02    0.50000E+00  0.50000E+00 -0.10000E+01  0.00000E+00  0.00000E+00  0.00000E+00    0.19114E+02  0.19211E+02 -0.38325E+02  0.28544E+01 -0.43394E+01  0.20428E+02      982.00
