          Evm          Svm            E11          E22          E33          E23          E13          E12         SDEV11       SDEV22       SDEV33       SDEV23       SDEV13       SDEV12      TEMP
  0.00000E+00  0.60901E+02    0.00000E+00  0.00000E+00  0.00000E+00  0.00000E+00  0.00000E+00  0.00000E+00    0.16549E+02  0.21873E+02 -0.38422E+02 -0.60060E+01  0.34052E+01  0.86245E+01      982.00
  0.23658E-01  0.61208E+02    0.12500E-01  0.12500E-01 -0.25000E-01  0.00000E+00  0.00000E+00  0.00000E+00    0.17409E+02  0.21119E+02 -0.38528E+02 -0.58306E+01  0.38138E+01  0.91393E+01      982.00
  0.47263E-01  0.61473E+02    0.25000E-01  0.25000E-01 -0.50000E-01  0.00000E+00  0.00000E+00  0.00000E+00    0.18171E+02  0.20423E+02 -0.38593E+02 -0.56568E+01  0.41697E+01  0.95876E+01      982.00
  0.70806E-01  0.61658E+02    0.37500E-01  0.37500E-01 -0.75000E-01  0.00000E+00  0.00000E+00  0.00000E+00    0.18775E+02  0.19841E+02 -0.38616E+02 -0.54677E+01  0.44170E+01  0.99576E+01      982.00
  0.94292E-01  0.61802E+02    0.50000E-01  0.50000E-01 -0.10000E+00  0.00000E+00  0.00000E+00  0.00000E+00    0.19227E+02  0.19401E+02 -0.38628E+02 -0.52598E+01  0.45300E+01  0.10289E+02      982.00
  0.11773E+00  0.61929E+02    0.62500E-01  0.62500E-01 -0.12500E+00  0.00000E+00  0.00000E+00  0.00000E+00    0.19551E+02  0.19092E+02 -0.38643E+02 -0.50358E+01  0.45197E+01  0.10610E+02      982.00
  0.14113E+00  0.62049E+02    0.75000E-01  0.75000E-01 -0.15000E+00  0.00000E+00  0.00000E+00  0.00000E+00    0.19792E+02  0.18866E+02 -0.38658E+02 -0.47920E+01  0.44239E+01  0.10946E+02      982.00
  0.16449E+00  0.62190E+02    0.87500E-01  0.87500E-01 -0.17500E+00  0.00000E+00  0.00000E+00  0.00000E+00    0.19974E+02  0.18712E+02 -0.38686E+02 -0.45348E+01  0.42627E+01  0.11298E+02      982.00
  0.18782E+00  0.62332E+02    0.10000E+00  0.10000E+00 -0.20000E+00  0.00000E+00  0.00000E+00  0.00000E+00    0.20115E+02  0.18595E+02 -0.38710E+02 -0.42620E+01  0.40562E+01  0.11663E+02      982.00
  0.21111E+00  0.62500E+02    0.11250E+00  0.11250E+00 -0.22500E+00  0.00000E+00  0.00000E+00  0.00000E+00    0.20244E+02  0.18507E+02 -0.38751E+02 -0.39732E+01  0.38178E+01  0.12032E+02      982.00
  0.23436E+00  0.62673E+02    0.12500E+00  0.12500E+00 -0.25000E+00  0.00000E+00  0.00000E+00  0.00000E+00    0.20349E+02  0.18438E+02 -0.38788E+02 -0.36810E+01  0.35576E+01  0.12402E+02      982.00
  0.25757E+00  0.62857E+02    0.13750E+00  0.13750E+00 -0.27500E+00  0.00000E+00  0.00000E+00  0.00000E+00    0.20450E+02  0.18381E+02 -0.38831E+02 -0.33826E+01  0.32842E+01  0.12761E+02      982.00
  0.28073E+00  0.63051E+02    0.15000E+00  0.15000E+00 -0.30000E+00  0.00000E+00  0.00000E+00  0.00000E+00    0.20551E+02  0.18327E+02 -0.38878E+02 -0.30766E+01  0.30018E+01  0.13108E+02      982.00
  0.30386E+00  0.63260E+02    0.16250E+00  0.16250E+00 -0.32500E+00  0.00000E+00  0.00000E+00  0.00000E+00    0.20645E+02  0.18288E+02 -0.38933E+02 -0.27867E+01  0.27259E+01  0.13435E+02      982.00
  0.32694E+00  0.63470E+02    0.17500E+00  0.17500E+00 -0.35000E+00  0.00000E+00  0.00000E+00  0.00000E+00    0.20731E+02  0.18257E+02 -0.38988E+02 -0.25140E+01  0.24623E+01  0.13743E+02      982.00
  0.34997E+00  0.63683E+02    0.18750E+00  0.18750E+00 -0.37500E+00  0.00000E+00  0.00000E+00  0.00000E+00    0.20809E+02  0.18235E+02 -0.39044E+02 -0.22663E+01  0.22191E+01  0.14027E+02      982.00
  0.37296E+00  0.63894E+02    0.20000E+00  0.20000E+00 -0.40000E+00  0.00000E+00  0.00000E+00  0.00000E+00    0.20879E+02  0.18223E+02 -0.39102E+02 -0.20456E+01  0.19994E+01  0.14287E+02      982.00
  0.39591E+00  0.64109E+02    0.21250E+00  0.21250E+00 -0.42500E+00  0.00000E+00  0.00000E+00  0.00000E+00    0.20940E+02  0.18222E+02 -0.39162E+02 -0.18533E+01  0.18043E+01  0.14532E+02      982.00
  0.41882E+00  0.64324E+02    0.22500E+00  0.22500E+00 -0.45000E+00  0.00000E+00  0.00000E+00  0.00000E+00    0.20991E+02  0.18231E+02 -0.39222E+02 -0.17057E+01  0.16481E+01  0.14761E+02      982.00
  0.44169E+00  0.64532E+02    0.23750E+00  0.23750E+00 -0.47500E+00  0.00000E+00  0.00000E+00  0.00000E+00    0.21033E+02  0.18245E+02 -0.39277E+02 -0.15772E+01  0.15081E+01  0.14979E+02      982.00
  0.46451E+00  0.64732E+02    0.25000E+00  0.25000E+00 -0.50000E+00  0.00000E+00  0.00000E+00  0.00000E+00    0.21067E+02  0.18265E+02 -0.39331E+02 -0.14948E+01  0.14116E+01  0.15176E+02      982.00
  0.48730E+00  0.64938E+02    0.26250E+00  0.26250E+00 -0.52500E+00  0.00000E+00  0.00000E+00  0.00000E+00    0.21098E+02  0.18288E+02 -0.39386E+02 -0.14172E+01  0.13174E+01  0.15379E+02      982.00
  0.51004E+00  0.65121E+02    0.27500E+00  0.27500E+00 -0.55000E+00  0.00000E+00  0.00000E+00  0.00000E+00    0.21122E+02  0.18308E+02 -0.39430E+02 -0.13718E+01  0.12549E+01  0.15560E+02      982.00
  0.53275E+00  0.65300E+02    0.28750E+00  0.28750E+00 -0.57500E+00  0.00000E+00  0.00000E+00  0.00000E+00    0.21146E+02  0.18326E+02 -0.39473E+02 -0.13418E+01  0.12079E+01  0.15734E+02      982.00
  0.55541E+00  0.65474E+02    0.30000E+00  0.30000E+00 -0.60000E+00  0.00000E+00  0.00000E+00  0.00000E+00    0.21166E+02  0.18348E+02 -0.39514E+02 -0.13199E+01  0.11667E+01  0.15900E+02      982.00
  0.57805E+00  0.65632E+02    0.31250E+00  0.31250E+00 -0.62500E+00  0.00000E+00  0.00000E+00  0.00000E+00    0.21185E+02  0.18363E+02 -0.39548E+02 -0.13136E+01  0.11426E+01  0.16056E+02      982.00
  0.60064E+00  0.65784E+02    0.32500E+00  0.32500E+00 -0.65000E+00  0.00000E+00  0.00000E+00  0.00000E+00    0.21206E+02  0.18374E+02 -0.39580E+02 -0.13147E+01  0.11261E+01  0.16204E+02      982.00
  0.62320E+00  0.65925E+02    0.33750E+00  0.33750E+00 -0.67500E+00  0.00000E+00  0.00000E+00  0.00000E+00    0.21226E+02  0.18382E+02 -0.39608E+02 -0.13230E+01  0.11175E+01  0.16343E+02      982.00
  0.64574E+00  0.66062E+02    0.35000E+00  0.35000E+00 -0.70000E+00  0.00000E+00  0.00000E+00  0.00000E+00    0.21247E+02  0.18388E+02 -0.39635E+02 -0.13363E+01  0.11145E+01  0.16476E+02      982.00
  0.66823E+00  0.66188E+02    0.36250E+00  0.36250E+00 -0.72500E+00  0.00000E+00  0.00000E+00  0.00000E+00    0.21267E+02  0.18391E+02 -0.39658E+02 -0.13534E+01  0.11158E+01  0.16601E+02      982.00
  0.69070E+00  0.66301E+02    0.37500E+00  0.37500E+00 -0.75000E+00  0.00000E+00  0.00000E+00  0.00000E+00    0.21285E+02  0.18389E+02 -0.39674E+02 -0.13734E+01  0.11207E+01  0.16719E+02      982.00
  0.71314E+00  0.66438E+02    0.38750E+00  0.38750E+00 -0.77500E+00  0.00000E+00  0.00000E+00  0.00000E+00    0.21306E+02  0.18386E+02 -0.39692E+02 -0.14030E+01  0.11286E+01  0.16863E+02      982.00
  0.73555E+00  0.66537E+02    0.40000E+00  0.40000E+00 -0.80000E+00  0.00000E+00  0.00000E+00  0.00000E+00    0.21325E+02  0.18381E+02 -0.39706E+02 -0.14291E+01  0.11389E+01  0.16965E+02      982.00
  0.75792E+00  0.66626E+02    0.41250E+00  0.41250E+00 -0.82500E+00  0.00000E+00  0.00000E+00  0.00000E+00    0.21344E+02  0.18373E+02 -0.39716E+02 -0.14551E+01  0.11508E+01  0.17059E+02      982.00
  0.78028E+00  0.66715E+02    0.42500E+00  0.42500E+00 -0.85000E+00  0.00000E+00  0.00000E+00  0.00000E+00    0.21364E+02  0.18364E+02 -0.39728E+02 -0.14815E+01  0.11637E+01  0.17149E+02      982.00
  0.80261E+00  0.66791E+02    0.43750E+00  0.43750E+00 -0.87500E+00  0.00000E+00  0.00000E+00  0.00000E+00    0.21382E+02  0.18352E+02 -0.39734E+02 -0.15076E+01  0.11770E+01  0.17233E+02      982.00
  0.82492E+00  0.66849E+02    0.45000E+00  0.45000E+00 -0.90000E+00  0.00000E+00  0.00000E+00  0.00000E+00    0.21399E+02  0.18346E+02 -0.39745E+02 -0.15220E+01  0.11852E+01  0.17286E+02      982.00
  0.84721E+00  0.66933E+02    0.46250E+00  0.46250E+00 -0.92500E+00  0.00000E+00  0.00000E+00  0.00000E+00    0.21420E+02  0.18327E+02 -0.39747E+02 -0.15570E+01  0.12033E+01  0.17383E+02      982.00
  0.86948E+00  0.66984E+02    0.47500E+00  0.47500E+00 -0.95000E+00  0.00000E+00  0.00000E+00  0.00000E+00    0.21437E+02  0.18319E+02 -0.39756E+02 -0.15722E+01  0.12118E+01  0.17432E+02      982.00
  0.89174E+00  0.67045E+02    0.48750E+00  0.48750E+00 -0.97500E+00  0.00000E+00  0.00000E+00  0.00000E+00    0.21456E+02  0.18306E+02 -0.39761E+02 -0.15953E+01  0.12239E+01  0.17496E+02      982.00
  0.91398E+00  0.67100E+02    0.50000E+00  0.50000E+00 -0.10000E+01  0.00000E+00  0.00000E+00  0.00000E+00    0.21474E+02  0.18290E+02 -0.39764E+02 -0.16187E+01  0.12366E+01  0.17557E+02      982.00
