          Evm          Svm            E11          E22          E33          E23          E13          E12         SDEV11       SDEV22       SDEV33       SDEV23       SDEV13       SDEV12      TEMP
  0.00000E+00  0.58412E+02    0.00000E+00  0.00000E+00  0.00000E+00  0.00000E+00  0.00000E+00  0.00000E+00    0.21029E+02  0.14791E+02 -0.35820E+02  0.55204E+01  0.50170E+01 -0.10470E+02      982.00
  0.22996E-01  0.58558E+02    0.12500E-01  0.12500E-01 -0.25000E-01  0.00000E+00  0.00000E+00  0.00000E+00    0.20845E+02  0.15143E+02 -0.35988E+02  0.54974E+01  0.50856E+01 -0.10367E+02      982.00
  0.46042E-01  0.58737E+02    0.25000E-01  0.25000E-01 -0.50000E-01  0.00000E+00  0.00000E+00  0.00000E+00    0.20748E+02  0.15420E+02 -0.36168E+02  0.53691E+01  0.52509E+01 -0.10267E+02      982.00
  0.69133E-01  0.58979E+02    0.37500E-01  0.37500E-01 -0.75000E-01  0.00000E+00  0.00000E+00  0.00000E+00    0.20728E+02  0.15645E+02 -0.36373E+02  0.52454E+01  0.54121E+01 -0.10197E+02      982.00
  0.92260E-01  0.59244E+02    0.50000E-01  0.50000E-01 -0.10000E+00  0.00000E+00  0.00000E+00  0.00000E+00    0.20740E+02  0.15847E+02 -0.36587E+02  0.51315E+01  0.55476E+01 -0.10144E+02      982.00
  0.11542E+00  0.59537E+02    0.62500E-01  0.62500E-01 -0.12500E+00  0.00000E+00  0.00000E+00  0.00000E+00    0.20795E+02  0.16020E+02 -0.36814E+02  0.50353E+01  0.56434E+01 -0.10109E+02      982.00
  0.13861E+00  0.59870E+02    0.75000E-01  0.75000E-01 -0.15000E+00  0.00000E+00  0.00000E+00  0.00000E+00    0.20888E+02  0.16174E+02 -0.37063E+02  0.49618E+01  0.56987E+01 -0.10096E+02      982.00
  0.16182E+00  0.60215E+02    0.87500E-01  0.87500E-01 -0.17500E+00  0.00000E+00  0.00000E+00  0.00000E+00    0.21023E+02  0.16294E+02 -0.37317E+02  0.48918E+01  0.57255E+01 -0.10094E+02      982.00
  0.18506E+00  0.60592E+02    0.10000E+00  0.10000E+00 -0.20000E+00  0.00000E+00  0.00000E+00  0.00000E+00    0.21187E+02  0.16403E+02 -0.37590E+02  0.48397E+01  0.57233E+01 -0.10108E+02      982.00
  0.20832E+00  0.60991E+02    0.11250E+00  0.11250E+00 -0.22500E+00  0.00000E+00  0.00000E+00  0.00000E+00    0.21376E+02  0.16498E+02 -0.37874E+02  0.47990E+01  0.56996E+01 -0.10133E+02      982.00
  0.23161E+00  0.61406E+02    0.12500E+00  0.12500E+00 -0.25000E+00  0.00000E+00  0.00000E+00  0.00000E+00    0.21585E+02  0.16582E+02 -0.38167E+02  0.47680E+01  0.56593E+01 -0.10164E+02      982.00
  0.25492E+00  0.61832E+02    0.13750E+00  0.13750E+00 -0.27500E+00  0.00000E+00  0.00000E+00  0.00000E+00    0.21810E+02  0.16658E+02 -0.38467E+02  0.47458E+01  0.56066E+01 -0.10198E+02      982.00
  0.27825E+00  0.62265E+02    0.15000E+00  0.15000E+00 -0.30000E+00  0.00000E+00  0.00000E+00  0.00000E+00    0.22045E+02  0.16726E+02 -0.38771E+02  0.47316E+01  0.55447E+01 -0.10232E+02      982.00
  0.30160E+00  0.62694E+02    0.16250E+00  0.16250E+00 -0.32500E+00  0.00000E+00  0.00000E+00  0.00000E+00    0.22295E+02  0.16778E+02 -0.39072E+02  0.47210E+01  0.54769E+01 -0.10262E+02      982.00
  0.32497E+00  0.63125E+02    0.17500E+00  0.17500E+00 -0.35000E+00  0.00000E+00  0.00000E+00  0.00000E+00    0.22541E+02  0.16835E+02 -0.39375E+02  0.47203E+01  0.54038E+01 -0.10287E+02      982.00
  0.34836E+00  0.63549E+02    0.18750E+00  0.18750E+00 -0.37500E+00  0.00000E+00  0.00000E+00  0.00000E+00    0.22787E+02  0.16888E+02 -0.39674E+02  0.47254E+01  0.53277E+01 -0.10306E+02      982.00
  0.37177E+00  0.63961E+02    0.20000E+00  0.20000E+00 -0.40000E+00  0.00000E+00  0.00000E+00  0.00000E+00    0.23031E+02  0.16935E+02 -0.39967E+02  0.47348E+01  0.52496E+01 -0.10316E+02      982.00
  0.39521E+00  0.64364E+02    0.21250E+00  0.21250E+00 -0.42500E+00  0.00000E+00  0.00000E+00  0.00000E+00    0.23287E+02  0.16967E+02 -0.40254E+02  0.47466E+01  0.51675E+01 -0.10314E+02      982.00
  0.41866E+00  0.64746E+02    0.22500E+00  0.22500E+00 -0.45000E+00  0.00000E+00  0.00000E+00  0.00000E+00    0.23524E+02  0.17005E+02 -0.40529E+02  0.47623E+01  0.50878E+01 -0.10306E+02      982.00
  0.44213E+00  0.65110E+02    0.23750E+00  0.23750E+00 -0.47500E+00  0.00000E+00  0.00000E+00  0.00000E+00    0.23756E+02  0.17037E+02 -0.40793E+02  0.47804E+01  0.50080E+01 -0.10288E+02      982.00
  0.46563E+00  0.65457E+02    0.25000E+00  0.25000E+00 -0.50000E+00  0.00000E+00  0.00000E+00  0.00000E+00    0.23982E+02  0.17065E+02 -0.41046E+02  0.47999E+01  0.49286E+01 -0.10262E+02      982.00
  0.48914E+00  0.65784E+02    0.26250E+00  0.26250E+00 -0.52500E+00  0.00000E+00  0.00000E+00  0.00000E+00    0.24202E+02  0.17086E+02 -0.41288E+02  0.48203E+01  0.48498E+01 -0.10227E+02      982.00
  0.51268E+00  0.66093E+02    0.27500E+00  0.27500E+00 -0.55000E+00  0.00000E+00  0.00000E+00  0.00000E+00    0.24416E+02  0.17101E+02 -0.41517E+02  0.48410E+01  0.47717E+01 -0.10185E+02      982.00
  0.53624E+00  0.66379E+02    0.28750E+00  0.28750E+00 -0.57500E+00  0.00000E+00  0.00000E+00  0.00000E+00    0.24633E+02  0.17100E+02 -0.41732E+02  0.48645E+01  0.46937E+01 -0.10131E+02      982.00
  0.55981E+00  0.66650E+02    0.30000E+00  0.30000E+00 -0.60000E+00  0.00000E+00  0.00000E+00  0.00000E+00    0.24835E+02  0.17103E+02 -0.41939E+02  0.48852E+01  0.46173E+01 -0.10074E+02      982.00
  0.58341E+00  0.66905E+02    0.31250E+00  0.31250E+00 -0.62500E+00  0.00000E+00  0.00000E+00  0.00000E+00    0.25033E+02  0.17102E+02 -0.42134E+02  0.49052E+01  0.45420E+01 -0.10010E+02      982.00
  0.60702E+00  0.67142E+02    0.32500E+00  0.32500E+00 -0.65000E+00  0.00000E+00  0.00000E+00  0.00000E+00    0.25225E+02  0.17094E+02 -0.42319E+02  0.49246E+01  0.44680E+01 -0.99396E+01      982.00
  0.63066E+00  0.67364E+02    0.33750E+00  0.33750E+00 -0.67500E+00  0.00000E+00  0.00000E+00  0.00000E+00    0.25413E+02  0.17080E+02 -0.42493E+02  0.49433E+01  0.43952E+01 -0.98642E+01      982.00
  0.65431E+00  0.67571E+02    0.35000E+00  0.35000E+00 -0.70000E+00  0.00000E+00  0.00000E+00  0.00000E+00    0.25596E+02  0.17061E+02 -0.42657E+02  0.49613E+01  0.43238E+01 -0.97840E+01      982.00
  0.67799E+00  0.67763E+02    0.36250E+00  0.36250E+00 -0.72500E+00  0.00000E+00  0.00000E+00  0.00000E+00    0.25774E+02  0.17036E+02 -0.42811E+02  0.49784E+01  0.42539E+01 -0.96993E+01      982.00
  0.70168E+00  0.67942E+02    0.37500E+00  0.37500E+00 -0.75000E+00  0.00000E+00  0.00000E+00  0.00000E+00    0.25949E+02  0.17006E+02 -0.42955E+02  0.49948E+01  0.41854E+01 -0.96106E+01      982.00
  0.72539E+00  0.68108E+02    0.38750E+00  0.38750E+00 -0.77500E+00  0.00000E+00  0.00000E+00  0.00000E+00    0.26121E+02  0.16971E+02 -0.43091E+02  0.50103E+01  0.41184E+01 -0.95182E+01      982.00
  0.74911E+00  0.68262E+02    0.40000E+00  0.40000E+00 -0.80000E+00  0.00000E+00  0.00000E+00  0.00000E+00    0.26288E+02  0.16930E+02 -0.43219E+02  0.50250E+01  0.40529E+01 -0.94226E+01      982.00
  0.77286E+00  0.68405E+02    0.41250E+00  0.41250E+00 -0.82500E+00  0.00000E+00  0.00000E+00  0.00000E+00    0.26453E+02  0.16885E+02 -0.43338E+02  0.50389E+01  0.39889E+01 -0.93240E+01      982.00
  0.79661E+00  0.68538E+02    0.42500E+00  0.42500E+00 -0.85000E+00  0.00000E+00  0.00000E+00  0.00000E+00    0.26614E+02  0.16836E+02 -0.43450E+02  0.50521E+01  0.39264E+01 -0.92227E+01      982.00
  0.82039E+00  0.68662E+02    0.43750E+00  0.43750E+00 -0.87500E+00  0.00000E+00  0.00000E+00  0.00000E+00    0.26772E+02  0.16783E+02 -0.43555E+02  0.50646E+01  0.38654E+01 -0.91191E+01      982.00
  0.84418E+00  0.68776E+02    0.45000E+00  0.45000E+00 -0.90000E+00  0.00000E+00  0.00000E+00  0.00000E+00    0.26928E+02  0.16725E+02 -0.43653E+02  0.50763E+01  0.38059E+01 -0.90134E+01      982.00
  0.86798E+00  0.68817E+02    0.46250E+00  0.46250E+00 -0.92500E+00  0.00000E+00  0.00000E+00  0.00000E+00    0.27049E+02  0.16662E+02 -0.43710E+02  0.50600E+01  0.37232E+01 -0.88986E+01      982.00
  0.89180E+00  0.68858E+02    0.47500E+00  0.47500E+00 -0.95000E+00  0.00000E+00  0.00000E+00  0.00000E+00    0.27168E+02  0.16597E+02 -0.43765E+02  0.50503E+01  0.36500E+01 -0.87856E+01      982.00
  0.91563E+00  0.68897E+02    0.48750E+00  0.48750E+00 -0.97500E+00  0.00000E+00  0.00000E+00  0.00000E+00    0.27286E+02  0.16529E+02 -0.43816E+02  0.50413E+01  0.35798E+01 -0.86738E+01      982.00
  0.93948E+00  0.68932E+02    0.50000E+00  0.50000E+00 -0.10000E+01  0.00000E+00  0.00000E+00  0.00000E+00    0.27403E+02  0.16461E+02 -0.43863E+02  0.50325E+01  0.35118E+01 -0.85629E+01      982.00
