          Evm          Svm            E11          E22          E33          E23          E13          E12         SDEV11       SDEV22       SDEV33       SDEV23       SDEV13       SDEV12      TEMP
  0.00000E+00  0.57588E+02    0.00000E+00  0.00000E+00  0.00000E+00  0.00000E+00  0.00000E+00  0.00000E+00    0.24518E+02  0.12463E+02 -0.36980E+02 -0.40694E+01  0.35617E+01 -0.37730E+01      982.00
  0.24081E-01  0.57605E+02    0.12500E-01  0.12500E-01 -0.25000E-01  0.00000E+00  0.00000E+00  0.00000E+00    0.24565E+02  0.12415E+02 -0.36980E+02 -0.41316E+01  0.33508E+01 -0.39094E+01      982.00
  0.48154E-01  0.57631E+02    0.25000E-01  0.25000E-01 -0.50000E-01  0.00000E+00  0.00000E+00  0.00000E+00    0.24602E+02  0.12402E+02 -0.37004E+02 -0.41614E+01  0.30611E+01 -0.40327E+01      982.00
  0.72232E-01  0.57685E+02    0.37500E-01  0.37500E-01 -0.75000E-01  0.00000E+00  0.00000E+00  0.00000E+00    0.24639E+02  0.12417E+02 -0.37056E+02 -0.41803E+01  0.27149E+01 -0.41405E+01      982.00
  0.96321E-01  0.57788E+02    0.50000E-01  0.50000E-01 -0.10000E+00  0.00000E+00  0.00000E+00  0.00000E+00    0.24690E+02  0.12451E+02 -0.37141E+02 -0.41941E+01  0.23507E+01 -0.42418E+01      982.00
  0.12042E+00  0.57976E+02    0.62500E-01  0.62500E-01 -0.12500E+00  0.00000E+00  0.00000E+00  0.00000E+00    0.24781E+02  0.12490E+02 -0.37271E+02 -0.42159E+01  0.20161E+01 -0.43487E+01      982.00
  0.14453E+00  0.58273E+02    0.75000E-01  0.75000E-01 -0.15000E+00  0.00000E+00  0.00000E+00  0.00000E+00    0.24930E+02  0.12529E+02 -0.37459E+02 -0.42591E+01  0.17304E+01 -0.44684E+01      982.00
  0.16864E+00  0.58682E+02    0.87500E-01  0.87500E-01 -0.17500E+00  0.00000E+00  0.00000E+00  0.00000E+00    0.25139E+02  0.12565E+02 -0.37704E+02 -0.43238E+01  0.15026E+01 -0.46057E+01      982.00
  0.19273E+00  0.59178E+02    0.10000E+00  0.10000E+00 -0.20000E+00  0.00000E+00  0.00000E+00  0.00000E+00    0.25391E+02  0.12603E+02 -0.37994E+02 -0.44064E+01  0.13273E+01 -0.47567E+01      982.00
  0.21681E+00  0.59741E+02    0.11250E+00  0.11250E+00 -0.22500E+00  0.00000E+00  0.00000E+00  0.00000E+00    0.25669E+02  0.12653E+02 -0.38322E+02 -0.45024E+01  0.11902E+01 -0.49162E+01      982.00
  0.24086E+00  0.60339E+02    0.12500E+00  0.12500E+00 -0.25000E+00  0.00000E+00  0.00000E+00  0.00000E+00    0.25963E+02  0.12704E+02 -0.38667E+02 -0.46060E+01  0.10910E+01 -0.50875E+01      982.00
  0.26489E+00  0.60968E+02    0.13750E+00  0.13750E+00 -0.27500E+00  0.00000E+00  0.00000E+00  0.00000E+00    0.26270E+02  0.12764E+02 -0.39034E+02 -0.46937E+01  0.10288E+01 -0.52542E+01      982.00
  0.28890E+00  0.61601E+02    0.15000E+00  0.15000E+00 -0.30000E+00  0.00000E+00  0.00000E+00  0.00000E+00    0.26573E+02  0.12829E+02 -0.39402E+02 -0.47873E+01  0.97824E+00 -0.54244E+01      982.00
  0.31289E+00  0.62218E+02    0.16250E+00  0.16250E+00 -0.32500E+00  0.00000E+00  0.00000E+00  0.00000E+00    0.26866E+02  0.12903E+02 -0.39769E+02 -0.48499E+01  0.94982E+00 -0.55703E+01      982.00
  0.33686E+00  0.62818E+02    0.17500E+00  0.17500E+00 -0.35000E+00  0.00000E+00  0.00000E+00  0.00000E+00    0.27149E+02  0.12981E+02 -0.40130E+02 -0.48985E+01  0.92976E+00 -0.57029E+01      982.00
  0.36081E+00  0.63398E+02    0.18750E+00  0.18750E+00 -0.37500E+00  0.00000E+00  0.00000E+00  0.00000E+00    0.27423E+02  0.13055E+02 -0.40479E+02 -0.49454E+01  0.91002E+00 -0.58315E+01      982.00
  0.38476E+00  0.63932E+02    0.20000E+00  0.20000E+00 -0.40000E+00  0.00000E+00  0.00000E+00  0.00000E+00    0.27674E+02  0.13134E+02 -0.40808E+02 -0.49628E+01  0.90037E+00 -0.59303E+01      982.00
  0.40869E+00  0.64451E+02    0.21250E+00  0.21250E+00 -0.42500E+00  0.00000E+00  0.00000E+00  0.00000E+00    0.27919E+02  0.13211E+02 -0.41130E+02 -0.49736E+01  0.88932E+00 -0.60222E+01      982.00
  0.43262E+00  0.64917E+02    0.22500E+00  0.22500E+00 -0.45000E+00  0.00000E+00  0.00000E+00  0.00000E+00    0.28139E+02  0.13288E+02 -0.41427E+02 -0.49612E+01  0.88422E+00 -0.60873E+01      982.00
  0.45655E+00  0.65342E+02    0.23750E+00  0.23750E+00 -0.47500E+00  0.00000E+00  0.00000E+00  0.00000E+00    0.28344E+02  0.13359E+02 -0.41703E+02 -0.49366E+01  0.87751E+00 -0.61328E+01      982.00
  0.48049E+00  0.65745E+02    0.25000E+00  0.25000E+00 -0.50000E+00  0.00000E+00  0.00000E+00  0.00000E+00    0.28538E+02  0.13429E+02 -0.41967E+02 -0.49055E+01  0.87052E+00 -0.61654E+01      982.00
  0.50442E+00  0.66123E+02    0.26250E+00  0.26250E+00 -0.52500E+00  0.00000E+00  0.00000E+00  0.00000E+00    0.28722E+02  0.13495E+02 -0.42217E+02 -0.48749E+01  0.86439E+00 -0.61860E+01      982.00
  0.52837E+00  0.66429E+02    0.27500E+00  0.27500E+00 -0.55000E+00  0.00000E+00  0.00000E+00  0.00000E+00    0.28866E+02  0.13558E+02 -0.42424E+02 -0.48450E+01  0.86017E+00 -0.61914E+01      982.00
  0.55232E+00  0.66755E+02    0.28750E+00  0.28750E+00 -0.57500E+00  0.00000E+00  0.00000E+00  0.00000E+00    0.29025E+02  0.13620E+02 -0.42645E+02 -0.48020E+01  0.85498E+00 -0.61936E+01      982.00
  0.57627E+00  0.67051E+02    0.30000E+00  0.30000E+00 -0.60000E+00  0.00000E+00  0.00000E+00  0.00000E+00    0.29170E+02  0.13678E+02 -0.42849E+02 -0.47559E+01  0.85094E+00 -0.61870E+01      982.00
  0.60024E+00  0.67325E+02    0.31250E+00  0.31250E+00 -0.62500E+00  0.00000E+00  0.00000E+00  0.00000E+00    0.29301E+02  0.13738E+02 -0.43039E+02 -0.47137E+01  0.84855E+00 -0.61730E+01      982.00
  0.62421E+00  0.67573E+02    0.32500E+00  0.32500E+00 -0.65000E+00  0.00000E+00  0.00000E+00  0.00000E+00    0.29426E+02  0.13789E+02 -0.43215E+02 -0.46620E+01  0.84545E+00 -0.61503E+01      982.00
  0.64819E+00  0.67803E+02    0.33750E+00  0.33750E+00 -0.67500E+00  0.00000E+00  0.00000E+00  0.00000E+00    0.29543E+02  0.13836E+02 -0.43379E+02 -0.46081E+01  0.84249E+00 -0.61206E+01      982.00
  0.67218E+00  0.68023E+02    0.35000E+00  0.35000E+00 -0.70000E+00  0.00000E+00  0.00000E+00  0.00000E+00    0.29654E+02  0.13885E+02 -0.43539E+02 -0.45533E+01  0.84003E+00 -0.60847E+01      982.00
  0.69619E+00  0.68218E+02    0.36250E+00  0.36250E+00 -0.72500E+00  0.00000E+00  0.00000E+00  0.00000E+00    0.29755E+02  0.13929E+02 -0.43683E+02 -0.44970E+01  0.83814E+00 -0.60449E+01      982.00
  0.72020E+00  0.68402E+02    0.37500E+00  0.37500E+00 -0.75000E+00  0.00000E+00  0.00000E+00  0.00000E+00    0.29850E+02  0.13971E+02 -0.43821E+02 -0.44414E+01  0.83696E+00 -0.59987E+01      982.00
  0.74422E+00  0.68575E+02    0.38750E+00  0.38750E+00 -0.77500E+00  0.00000E+00  0.00000E+00  0.00000E+00    0.29939E+02  0.14012E+02 -0.43951E+02 -0.43860E+01  0.83639E+00 -0.59496E+01      982.00
  0.76826E+00  0.68722E+02    0.40000E+00  0.40000E+00 -0.80000E+00  0.00000E+00  0.00000E+00  0.00000E+00    0.30018E+02  0.14046E+02 -0.44064E+02 -0.43310E+01  0.83674E+00 -0.58963E+01      982.00
  0.79230E+00  0.68864E+02    0.41250E+00  0.41250E+00 -0.82500E+00  0.00000E+00  0.00000E+00  0.00000E+00    0.30093E+02  0.14082E+02 -0.44175E+02 -0.42775E+01  0.83718E+00 -0.58409E+01      982.00
  0.81636E+00  0.69003E+02    0.42500E+00  0.42500E+00 -0.85000E+00  0.00000E+00  0.00000E+00  0.00000E+00    0.30168E+02  0.14115E+02 -0.44283E+02 -0.42239E+01  0.83859E+00 -0.57821E+01      982.00
  0.84042E+00  0.69128E+02    0.43750E+00  0.43750E+00 -0.87500E+00  0.00000E+00  0.00000E+00  0.00000E+00    0.30235E+02  0.14148E+02 -0.44382E+02 -0.41736E+01  0.84004E+00 -0.57231E+01      982.00
  0.86450E+00  0.69183E+02    0.45000E+00  0.45000E+00 -0.90000E+00  0.00000E+00  0.00000E+00  0.00000E+00    0.30268E+02  0.14171E+02 -0.44439E+02 -0.41093E+01  0.83715E+00 -0.56514E+01      982.00
  0.88859E+00  0.69224E+02    0.46250E+00  0.46250E+00 -0.92500E+00  0.00000E+00  0.00000E+00  0.00000E+00    0.30299E+02  0.14187E+02 -0.44486E+02 -0.40439E+01  0.83361E+00 -0.55792E+01      982.00
  0.91268E+00  0.69263E+02    0.47500E+00  0.47500E+00 -0.95000E+00  0.00000E+00  0.00000E+00  0.00000E+00    0.30329E+02  0.14202E+02 -0.44530E+02 -0.39841E+01  0.83088E+00 -0.55069E+01      982.00
  0.93679E+00  0.69303E+02    0.48750E+00  0.48750E+00 -0.97500E+00  0.00000E+00  0.00000E+00  0.00000E+00    0.30358E+02  0.14217E+02 -0.44575E+02 -0.39262E+01  0.82943E+00 -0.54349E+01      982.00
  0.96091E+00  0.69341E+02    0.50000E+00  0.50000E+00 -0.10000E+01  0.00000E+00  0.00000E+00  0.00000E+00    0.30387E+02  0.14231E+02 -0.44617E+02 -0.38714E+01  0.82875E+00 -0.53639E+01      982.00
