          Evm          Svm            E11          E22          E33          E23          E13          E12         SDEV11       SDEV22       SDEV33       SDEV23       SDEV13       SDEV12      TEMP
  0.00000E+00  0.62729E+02    0.00000E+00  0.00000E+00  0.00000E+00  0.00000E+00  0.00000E+00  0.00000E+00    0.12388E+02  0.27061E+02 -0.39448E+02 -0.21773E+00 -0.57448E+01 -0.75932E+01      982.00
  0.23582E-01  0.62883E+02    0.12500E-01  0.12500E-01 -0.25000E-01  0.00000E+00  0.00000E+00  0.00000E+00    0.12292E+02  0.27276E+02 -0.39569E+02 -0.27926E+00 -0.55461E+01 -0.75400E+01      982.00
  0.47179E-01  0.63145E+02    0.25000E-01  0.25000E-01 -0.50000E-01  0.00000E+00  0.00000E+00  0.00000E+00    0.12216E+02  0.27535E+02 -0.39751E+02 -0.40467E+00 -0.53819E+01 -0.74964E+01      982.00
  0.70786E-01  0.63534E+02    0.37500E-01  0.37500E-01 -0.75000E-01  0.00000E+00  0.00000E+00  0.00000E+00    0.12144E+02  0.27866E+02 -0.40010E+02 -0.59326E+00 -0.52320E+01 -0.74443E+01      982.00
  0.94401E-01  0.64019E+02    0.50000E-01  0.50000E-01 -0.10000E+00  0.00000E+00  0.00000E+00  0.00000E+00    0.12120E+02  0.28214E+02 -0.40334E+02 -0.80728E+00 -0.51351E+01 -0.73657E+01      982.00
  0.11803E+00  0.64400E+02    0.62500E-01  0.62500E-01 -0.12500E+00  0.00000E+00  0.00000E+00  0.00000E+00    0.12203E+02  0.28419E+02 -0.40622E+02 -0.96742E+00 -0.51052E+01 -0.72176E+01      982.00
  0.14168E+00  0.64526E+02    0.75000E-01  0.75000E-01 -0.15000E+00  0.00000E+00  0.00000E+00  0.00000E+00    0.12334E+02  0.28448E+02 -0.40781E+02 -0.11388E+01 -0.50447E+01 -0.69898E+01      982.00
  0.16538E+00  0.64605E+02    0.87500E-01  0.87500E-01 -0.17500E+00  0.00000E+00  0.00000E+00  0.00000E+00    0.12393E+02  0.28516E+02 -0.40909E+02 -0.14271E+01 -0.48744E+01 -0.67303E+01      982.00
  0.18913E+00  0.64778E+02    0.10000E+00  0.10000E+00 -0.20000E+00  0.00000E+00  0.00000E+00  0.00000E+00    0.12390E+02  0.28681E+02 -0.41071E+02 -0.17953E+01 -0.46647E+01 -0.65007E+01      982.00
  0.21290E+00  0.65009E+02    0.11250E+00  0.11250E+00 -0.22500E+00  0.00000E+00  0.00000E+00  0.00000E+00    0.12374E+02  0.28876E+02 -0.41250E+02 -0.21604E+01 -0.44631E+01 -0.63155E+01      982.00
  0.23670E+00  0.65288E+02    0.12500E+00  0.12500E+00 -0.25000E+00  0.00000E+00  0.00000E+00  0.00000E+00    0.12357E+02  0.29087E+02 -0.41444E+02 -0.24843E+01 -0.42837E+01 -0.61785E+01      982.00
  0.26050E+00  0.65599E+02    0.13750E+00  0.13750E+00 -0.27500E+00  0.00000E+00  0.00000E+00  0.00000E+00    0.12355E+02  0.29293E+02 -0.41648E+02 -0.27517E+01 -0.41382E+01 -0.60899E+01      982.00
  0.28431E+00  0.65928E+02    0.15000E+00  0.15000E+00 -0.30000E+00  0.00000E+00  0.00000E+00  0.00000E+00    0.12373E+02  0.29485E+02 -0.41859E+02 -0.29637E+01 -0.40291E+01 -0.60437E+01      982.00
  0.30812E+00  0.66269E+02    0.16250E+00  0.16250E+00 -0.32500E+00  0.00000E+00  0.00000E+00  0.00000E+00    0.12399E+02  0.29674E+02 -0.42073E+02 -0.31283E+01 -0.39424E+01 -0.60268E+01      982.00
  0.33193E+00  0.66610E+02    0.17500E+00  0.17500E+00 -0.35000E+00  0.00000E+00  0.00000E+00  0.00000E+00    0.12436E+02  0.29850E+02 -0.42286E+02 -0.32543E+01 -0.38793E+01 -0.60352E+01      982.00
  0.35573E+00  0.66943E+02    0.18750E+00  0.18750E+00 -0.37500E+00  0.00000E+00  0.00000E+00  0.00000E+00    0.12484E+02  0.30010E+02 -0.42494E+02 -0.33503E+01 -0.38350E+01 -0.60623E+01      982.00
  0.37954E+00  0.67248E+02    0.20000E+00  0.20000E+00 -0.40000E+00  0.00000E+00  0.00000E+00  0.00000E+00    0.12540E+02  0.30146E+02 -0.42686E+02 -0.34200E+01 -0.38041E+01 -0.60978E+01      982.00
  0.40334E+00  0.67558E+02    0.21250E+00  0.21250E+00 -0.42500E+00  0.00000E+00  0.00000E+00  0.00000E+00    0.12606E+02  0.30275E+02 -0.42881E+02 -0.34767E+01 -0.37885E+01 -0.61499E+01      982.00
  0.42714E+00  0.67866E+02    0.22500E+00  0.22500E+00 -0.45000E+00  0.00000E+00  0.00000E+00  0.00000E+00    0.12685E+02  0.30390E+02 -0.43075E+02 -0.35205E+01 -0.37815E+01 -0.62109E+01      982.00
  0.45095E+00  0.68127E+02    0.23750E+00  0.23750E+00 -0.47500E+00  0.00000E+00  0.00000E+00  0.00000E+00    0.12771E+02  0.30475E+02 -0.43246E+02 -0.35451E+01 -0.37815E+01 -0.62601E+01      982.00
  0.47475E+00  0.68399E+02    0.25000E+00  0.25000E+00 -0.50000E+00  0.00000E+00  0.00000E+00  0.00000E+00    0.12868E+02  0.30555E+02 -0.43423E+02 -0.35686E+01 -0.37842E+01 -0.63273E+01      982.00
  0.49856E+00  0.68614E+02    0.26250E+00  0.26250E+00 -0.52500E+00  0.00000E+00  0.00000E+00  0.00000E+00    0.12958E+02  0.30609E+02 -0.43567E+02 -0.35791E+01 -0.37897E+01 -0.63786E+01      982.00
  0.52237E+00  0.68811E+02    0.27500E+00  0.27500E+00 -0.55000E+00  0.00000E+00  0.00000E+00  0.00000E+00    0.13048E+02  0.30652E+02 -0.43699E+02 -0.35856E+01 -0.37961E+01 -0.64293E+01      982.00
  0.54618E+00  0.68970E+02    0.28750E+00  0.28750E+00 -0.57500E+00  0.00000E+00  0.00000E+00  0.00000E+00    0.13124E+02  0.30682E+02 -0.43806E+02 -0.35885E+01 -0.38057E+01 -0.64754E+01      982.00
  0.57000E+00  0.69136E+02    0.30000E+00  0.30000E+00 -0.60000E+00  0.00000E+00  0.00000E+00  0.00000E+00    0.13212E+02  0.30707E+02 -0.43920E+02 -0.35921E+01 -0.38111E+01 -0.65267E+01      982.00
  0.59382E+00  0.69285E+02    0.31250E+00  0.31250E+00 -0.62500E+00  0.00000E+00  0.00000E+00  0.00000E+00    0.13300E+02  0.30723E+02 -0.44023E+02 -0.35931E+01 -0.38149E+01 -0.65788E+01      982.00
  0.61765E+00  0.69421E+02    0.32500E+00  0.32500E+00 -0.65000E+00  0.00000E+00  0.00000E+00  0.00000E+00    0.13386E+02  0.30731E+02 -0.44117E+02 -0.35930E+01 -0.38180E+01 -0.66314E+01      982.00
  0.64148E+00  0.69535E+02    0.33750E+00  0.33750E+00 -0.67500E+00  0.00000E+00  0.00000E+00  0.00000E+00    0.13453E+02  0.30743E+02 -0.44197E+02 -0.35959E+01 -0.38166E+01 -0.66699E+01      982.00
  0.66532E+00  0.69654E+02    0.35000E+00  0.35000E+00 -0.70000E+00  0.00000E+00  0.00000E+00  0.00000E+00    0.13552E+02  0.30729E+02 -0.44280E+02 -0.35917E+01 -0.38208E+01 -0.67379E+01      982.00
  0.68916E+00  0.69750E+02    0.36250E+00  0.36250E+00 -0.72500E+00  0.00000E+00  0.00000E+00  0.00000E+00    0.13618E+02  0.30730E+02 -0.44348E+02 -0.35945E+01 -0.38195E+01 -0.67777E+01      982.00
  0.71300E+00  0.69841E+02    0.37500E+00  0.37500E+00 -0.75000E+00  0.00000E+00  0.00000E+00  0.00000E+00    0.13698E+02  0.30715E+02 -0.44412E+02 -0.35935E+01 -0.38195E+01 -0.68323E+01      982.00
  0.73685E+00  0.69923E+02    0.38750E+00  0.38750E+00 -0.77500E+00  0.00000E+00  0.00000E+00  0.00000E+00    0.13777E+02  0.30694E+02 -0.44471E+02 -0.35919E+01 -0.38193E+01 -0.68871E+01      982.00
  0.76070E+00  0.69996E+02    0.40000E+00  0.40000E+00 -0.80000E+00  0.00000E+00  0.00000E+00  0.00000E+00    0.13855E+02  0.30669E+02 -0.44524E+02 -0.35899E+01 -0.38187E+01 -0.69422E+01      982.00
  0.78455E+00  0.70061E+02    0.41250E+00  0.41250E+00 -0.82500E+00  0.00000E+00  0.00000E+00  0.00000E+00    0.13932E+02  0.30640E+02 -0.44572E+02 -0.35878E+01 -0.38177E+01 -0.69975E+01      982.00
  0.80841E+00  0.70115E+02    0.42500E+00  0.42500E+00 -0.85000E+00  0.00000E+00  0.00000E+00  0.00000E+00    0.13998E+02  0.30614E+02 -0.44612E+02 -0.35845E+01 -0.38199E+01 -0.70428E+01      982.00
  0.83227E+00  0.70167E+02    0.43750E+00  0.43750E+00 -0.87500E+00  0.00000E+00  0.00000E+00  0.00000E+00    0.14072E+02  0.30578E+02 -0.44650E+02 -0.35822E+01 -0.38184E+01 -0.70983E+01      982.00
  0.85613E+00  0.70222E+02    0.45000E+00  0.45000E+00 -0.90000E+00  0.00000E+00  0.00000E+00  0.00000E+00    0.14156E+02  0.30535E+02 -0.44691E+02 -0.35918E+01 -0.38097E+01 -0.71589E+01      982.00
  0.88000E+00  0.70207E+02    0.46250E+00  0.46250E+00 -0.92500E+00  0.00000E+00  0.00000E+00  0.00000E+00    0.14221E+02  0.30468E+02 -0.44689E+02 -0.35757E+01 -0.37965E+01 -0.72080E+01      982.00
  0.90387E+00  0.70189E+02    0.47500E+00  0.47500E+00 -0.95000E+00  0.00000E+00  0.00000E+00  0.00000E+00    0.14288E+02  0.30399E+02 -0.44686E+02 -0.35614E+01 -0.37841E+01 -0.72553E+01      982.00
  0.92774E+00  0.70172E+02    0.48750E+00  0.48750E+00 -0.97500E+00  0.00000E+00  0.00000E+00  0.00000E+00    0.14353E+02  0.30330E+02 -0.44683E+02 -0.35474E+01 -0.37719E+01 -0.73028E+01      982.00
  0.95162E+00  0.70154E+02    0.50000E+00  0.50000E+00 -0.10000E+01  0.00000E+00  0.00000E+00  0.00000E+00    0.14417E+02  0.30261E+02 -0.44678E+02 -0.35338E+01 -0.37601E+01 -0.73503E+01      982.00
