          Evm          Svm            E11          E22          E33          E23          E13          E12         SDEV11       SDEV22       SDEV33       SDEV23       SDEV13       SDEV12      TEMP
  0.00000E+00  0.58992E+02    0.00000E+00  0.00000E+00  0.00000E+00  0.00000E+00  0.00000E+00  0.00000E+00    0.95855E+01  0.27059E+02 -0.36644E+02 -0.50103E+00 -0.17081E+01 -0.85703E+01      982.00
  0.23294E-01  0.59249E+02    0.12500E-01  0.12500E-01 -0.25000E-01  0.00000E+00  0.00000E+00  0.00000E+00    0.96612E+01  0.27097E+02 -0.36759E+02 -0.53166E+00 -0.19533E+01 -0.87558E+01      982.00
  0.46559E-01  0.59583E+02    0.25000E-01  0.25000E-01 -0.50000E-01  0.00000E+00  0.00000E+00  0.00000E+00    0.97522E+01  0.27171E+02 -0.36923E+02 -0.59621E+00 -0.21562E+01 -0.89449E+01      982.00
  0.69798E-01  0.59998E+02    0.37500E-01  0.37500E-01 -0.75000E-01  0.00000E+00  0.00000E+00  0.00000E+00    0.98754E+01  0.27265E+02 -0.37141E+02 -0.71301E+00 -0.23557E+01 -0.91496E+01      982.00
  0.93011E-01  0.60511E+02    0.50000E-01  0.50000E-01 -0.10000E+00  0.00000E+00  0.00000E+00  0.00000E+00    0.10031E+02  0.27390E+02 -0.37422E+02 -0.89011E+00 -0.25515E+01 -0.93601E+01      982.00
  0.11620E+00  0.61109E+02    0.62500E-01  0.62500E-01 -0.12500E+00  0.00000E+00  0.00000E+00  0.00000E+00    0.10228E+02  0.27536E+02 -0.37764E+02 -0.11212E+01 -0.27601E+01 -0.95612E+01      982.00
  0.13938E+00  0.61726E+02    0.75000E-01  0.75000E-01 -0.15000E+00  0.00000E+00  0.00000E+00  0.00000E+00    0.10486E+02  0.27654E+02 -0.38140E+02 -0.13722E+01 -0.30076E+01 -0.97182E+01      982.00
  0.16255E+00  0.62221E+02    0.87500E-01  0.87500E-01 -0.17500E+00  0.00000E+00  0.00000E+00  0.00000E+00    0.10798E+02  0.27679E+02 -0.38477E+02 -0.16172E+01 -0.32715E+01 -0.97740E+01      982.00
  0.18574E+00  0.62549E+02    0.10000E+00  0.10000E+00 -0.20000E+00  0.00000E+00  0.00000E+00  0.00000E+00    0.11078E+02  0.27658E+02 -0.38737E+02 -0.19075E+01 -0.34385E+01 -0.97226E+01      982.00
  0.20896E+00  0.62858E+02    0.11250E+00  0.11250E+00 -0.22500E+00  0.00000E+00  0.00000E+00  0.00000E+00    0.11268E+02  0.27715E+02 -0.38983E+02 -0.22650E+01 -0.34592E+01 -0.96216E+01      982.00
  0.23222E+00  0.63185E+02    0.12500E+00  0.12500E+00 -0.25000E+00  0.00000E+00  0.00000E+00  0.00000E+00    0.11393E+02  0.27839E+02 -0.39232E+02 -0.26163E+01 -0.33774E+01 -0.95177E+01      982.00
  0.25550E+00  0.63547E+02    0.13750E+00  0.13750E+00 -0.27500E+00  0.00000E+00  0.00000E+00  0.00000E+00    0.11494E+02  0.27997E+02 -0.39490E+02 -0.29402E+01 -0.32780E+01 -0.94331E+01      982.00
  0.27880E+00  0.63935E+02    0.15000E+00  0.15000E+00 -0.30000E+00  0.00000E+00  0.00000E+00  0.00000E+00    0.11588E+02  0.28170E+02 -0.39758E+02 -0.32112E+01 -0.31855E+01 -0.93728E+01      982.00
  0.30212E+00  0.64334E+02    0.16250E+00  0.16250E+00 -0.32500E+00  0.00000E+00  0.00000E+00  0.00000E+00    0.11677E+02  0.28349E+02 -0.40026E+02 -0.34315E+01 -0.31084E+01 -0.93343E+01      982.00
  0.32546E+00  0.64744E+02    0.17500E+00  0.17500E+00 -0.35000E+00  0.00000E+00  0.00000E+00  0.00000E+00    0.11770E+02  0.28527E+02 -0.40297E+02 -0.36065E+01 -0.30555E+01 -0.93181E+01      982.00
  0.34880E+00  0.65151E+02    0.18750E+00  0.18750E+00 -0.37500E+00  0.00000E+00  0.00000E+00  0.00000E+00    0.11881E+02  0.28688E+02 -0.40569E+02 -0.37367E+01 -0.30293E+01 -0.93146E+01      982.00
  0.37215E+00  0.65557E+02    0.20000E+00  0.20000E+00 -0.40000E+00  0.00000E+00  0.00000E+00  0.00000E+00    0.11994E+02  0.28844E+02 -0.40838E+02 -0.38418E+01 -0.30199E+01 -0.93236E+01      982.00
  0.39551E+00  0.65950E+02    0.21250E+00  0.21250E+00 -0.42500E+00  0.00000E+00  0.00000E+00  0.00000E+00    0.12121E+02  0.28981E+02 -0.41102E+02 -0.39238E+01 -0.30271E+01 -0.93364E+01      982.00
  0.41888E+00  0.66313E+02    0.22500E+00  0.22500E+00 -0.45000E+00  0.00000E+00  0.00000E+00  0.00000E+00    0.12248E+02  0.29099E+02 -0.41347E+02 -0.39850E+01 -0.30510E+01 -0.93503E+01      982.00
  0.44226E+00  0.66652E+02    0.23750E+00  0.23750E+00 -0.47500E+00  0.00000E+00  0.00000E+00  0.00000E+00    0.12388E+02  0.29198E+02 -0.41586E+02 -0.40227E+01 -0.30801E+01 -0.93550E+01      982.00
  0.46566E+00  0.66969E+02    0.25000E+00  0.25000E+00 -0.50000E+00  0.00000E+00  0.00000E+00  0.00000E+00    0.12526E+02  0.29284E+02 -0.41810E+02 -0.40503E+01 -0.31124E+01 -0.93595E+01      982.00
  0.48907E+00  0.67261E+02    0.26250E+00  0.26250E+00 -0.52500E+00  0.00000E+00  0.00000E+00  0.00000E+00    0.12667E+02  0.29354E+02 -0.42021E+02 -0.40703E+01 -0.31455E+01 -0.93611E+01      982.00
  0.51250E+00  0.67520E+02    0.27500E+00  0.27500E+00 -0.55000E+00  0.00000E+00  0.00000E+00  0.00000E+00    0.12797E+02  0.29415E+02 -0.42212E+02 -0.40806E+01 -0.31659E+01 -0.93590E+01      982.00
  0.53594E+00  0.67779E+02    0.28750E+00  0.28750E+00 -0.57500E+00  0.00000E+00  0.00000E+00  0.00000E+00    0.12938E+02  0.29465E+02 -0.42403E+02 -0.40923E+01 -0.31986E+01 -0.93582E+01      982.00
  0.55940E+00  0.68016E+02    0.30000E+00  0.30000E+00 -0.60000E+00  0.00000E+00  0.00000E+00  0.00000E+00    0.13077E+02  0.29504E+02 -0.42581E+02 -0.40988E+01 -0.32279E+01 -0.93552E+01      982.00
  0.58288E+00  0.68231E+02    0.31250E+00  0.31250E+00 -0.62500E+00  0.00000E+00  0.00000E+00  0.00000E+00    0.13216E+02  0.29530E+02 -0.42746E+02 -0.41038E+01 -0.32566E+01 -0.93498E+01      982.00
  0.60637E+00  0.68422E+02    0.32500E+00  0.32500E+00 -0.65000E+00  0.00000E+00  0.00000E+00  0.00000E+00    0.13352E+02  0.29544E+02 -0.42896E+02 -0.41065E+01 -0.32843E+01 -0.93435E+01      982.00
  0.62988E+00  0.68605E+02    0.33750E+00  0.33750E+00 -0.67500E+00  0.00000E+00  0.00000E+00  0.00000E+00    0.13490E+02  0.29551E+02 -0.43041E+02 -0.41065E+01 -0.33091E+01 -0.93370E+01      982.00
  0.65341E+00  0.68769E+02    0.35000E+00  0.35000E+00 -0.70000E+00  0.00000E+00  0.00000E+00  0.00000E+00    0.13623E+02  0.29551E+02 -0.43174E+02 -0.41058E+01 -0.33308E+01 -0.93283E+01      982.00
  0.67695E+00  0.68919E+02    0.36250E+00  0.36250E+00 -0.72500E+00  0.00000E+00  0.00000E+00  0.00000E+00    0.13756E+02  0.29542E+02 -0.43298E+02 -0.41030E+01 -0.33514E+01 -0.93208E+01      982.00
  0.70051E+00  0.69069E+02    0.37500E+00  0.37500E+00 -0.75000E+00  0.00000E+00  0.00000E+00  0.00000E+00    0.13884E+02  0.29537E+02 -0.43421E+02 -0.41016E+01 -0.33612E+01 -0.93144E+01      982.00
  0.72408E+00  0.69185E+02    0.38750E+00  0.38750E+00 -0.77500E+00  0.00000E+00  0.00000E+00  0.00000E+00    0.14016E+02  0.29507E+02 -0.43523E+02 -0.40947E+01 -0.33857E+01 -0.93049E+01      982.00
  0.74767E+00  0.69296E+02    0.40000E+00  0.40000E+00 -0.80000E+00  0.00000E+00  0.00000E+00  0.00000E+00    0.14134E+02  0.29485E+02 -0.43619E+02 -0.40904E+01 -0.34000E+01 -0.92992E+01      982.00
  0.77128E+00  0.69390E+02    0.41250E+00  0.41250E+00 -0.82500E+00  0.00000E+00  0.00000E+00  0.00000E+00    0.14256E+02  0.29450E+02 -0.43706E+02 -0.40847E+01 -0.34132E+01 -0.92915E+01      982.00
  0.79490E+00  0.69492E+02    0.42500E+00  0.42500E+00 -0.85000E+00  0.00000E+00  0.00000E+00  0.00000E+00    0.14380E+02  0.29416E+02 -0.43796E+02 -0.40790E+01 -0.34255E+01 -0.92869E+01      982.00
  0.81853E+00  0.69575E+02    0.43750E+00  0.43750E+00 -0.87500E+00  0.00000E+00  0.00000E+00  0.00000E+00    0.14501E+02  0.29374E+02 -0.43874E+02 -0.40725E+01 -0.34372E+01 -0.92822E+01      982.00
  0.84218E+00  0.69656E+02    0.45000E+00  0.45000E+00 -0.90000E+00  0.00000E+00  0.00000E+00  0.00000E+00    0.14619E+02  0.29332E+02 -0.43950E+02 -0.40649E+01 -0.34449E+01 -0.92797E+01      982.00
  0.86584E+00  0.69675E+02    0.46250E+00  0.46250E+00 -0.92500E+00  0.00000E+00  0.00000E+00  0.00000E+00    0.14727E+02  0.29262E+02 -0.43989E+02 -0.40383E+01 -0.34402E+01 -0.92709E+01      982.00
  0.88952E+00  0.69678E+02    0.47500E+00  0.47500E+00 -0.95000E+00  0.00000E+00  0.00000E+00  0.00000E+00    0.14833E+02  0.29185E+02 -0.44017E+02 -0.40161E+01 -0.34366E+01 -0.92610E+01      982.00
  0.91321E+00  0.69689E+02    0.48750E+00  0.48750E+00 -0.97500E+00  0.00000E+00  0.00000E+00  0.00000E+00    0.14938E+02  0.29112E+02 -0.44049E+02 -0.39930E+01 -0.34328E+01 -0.92532E+01      982.00
  0.93691E+00  0.69695E+02    0.50000E+00  0.50000E+00 -0.10000E+01  0.00000E+00  0.00000E+00  0.00000E+00    0.15041E+02  0.29037E+02 -0.44078E+02 -0.39718E+01 -0.34301E+01 -0.92466E+01      982.00
