          Evm          Svm            E11          E22          E33          E23          E13          E12         SDEV11       SDEV22       SDEV33       SDEV23       SDEV13       SDEV12      TEMP
  0.00000E+00  0.56128E+02    0.00000E+00  0.00000E+00  0.00000E+00  0.00000E+00  0.00000E+00  0.00000E+00    0.21445E+02  0.13960E+02 -0.35405E+02 -0.73175E+00  0.35872E+01  0.90866E+01      982.00
  0.23655E-01  0.56082E+02    0.12500E-01  0.12500E-01 -0.25000E-01  0.00000E+00  0.00000E+00  0.00000E+00    0.21016E+02  0.14342E+02 -0.35359E+02 -0.91408E+00  0.34591E+01  0.93158E+01      982.00
  0.47298E-01  0.56177E+02    0.25000E-01  0.25000E-01 -0.50000E-01  0.00000E+00  0.00000E+00  0.00000E+00    0.20566E+02  0.14817E+02 -0.35383E+02 -0.11255E+01  0.33010E+01  0.96198E+01      982.00
  0.70917E-01  0.56377E+02    0.37500E-01  0.37500E-01 -0.75000E-01  0.00000E+00  0.00000E+00  0.00000E+00    0.20089E+02  0.15364E+02 -0.35453E+02 -0.13548E+01  0.31206E+01  0.99814E+01      982.00
  0.94499E-01  0.56638E+02    0.50000E-01  0.50000E-01 -0.10000E+00  0.00000E+00  0.00000E+00  0.00000E+00    0.19644E+02  0.15896E+02 -0.35540E+02 -0.15719E+01  0.29531E+01  0.10358E+02      982.00
  0.11803E+00  0.56948E+02    0.62500E-01  0.62500E-01 -0.12500E+00  0.00000E+00  0.00000E+00  0.00000E+00    0.19273E+02  0.16367E+02 -0.35640E+02 -0.17614E+01  0.28095E+01  0.10737E+02      982.00
  0.14150E+00  0.57305E+02    0.75000E-01  0.75000E-01 -0.15000E+00  0.00000E+00  0.00000E+00  0.00000E+00    0.19004E+02  0.16751E+02 -0.35755E+02 -0.19155E+01  0.26910E+01  0.11118E+02      982.00
  0.16490E+00  0.57704E+02    0.87500E-01  0.87500E-01 -0.17500E+00  0.00000E+00  0.00000E+00  0.00000E+00    0.18822E+02  0.17065E+02 -0.35887E+02 -0.20385E+01  0.25894E+01  0.11505E+02      982.00
  0.18822E+00  0.58130E+02    0.10000E+00  0.10000E+00 -0.20000E+00  0.00000E+00  0.00000E+00  0.00000E+00    0.18728E+02  0.17303E+02 -0.36031E+02 -0.21270E+01  0.25056E+01  0.11890E+02      982.00
  0.21146E+00  0.58566E+02    0.11250E+00  0.11250E+00 -0.22500E+00  0.00000E+00  0.00000E+00  0.00000E+00    0.18693E+02  0.17488E+02 -0.36181E+02 -0.21888E+01  0.24324E+01  0.12267E+02      982.00
  0.23463E+00  0.59001E+02    0.12500E+00  0.12500E+00 -0.25000E+00  0.00000E+00  0.00000E+00  0.00000E+00    0.18712E+02  0.17619E+02 -0.36331E+02 -0.22228E+01  0.23721E+01  0.12631E+02      982.00
  0.25772E+00  0.59431E+02    0.13750E+00  0.13750E+00 -0.27500E+00  0.00000E+00  0.00000E+00  0.00000E+00    0.18766E+02  0.17713E+02 -0.36480E+02 -0.22338E+01  0.23223E+01  0.12984E+02      982.00
  0.28074E+00  0.59829E+02    0.15000E+00  0.15000E+00 -0.30000E+00  0.00000E+00  0.00000E+00  0.00000E+00    0.18843E+02  0.17773E+02 -0.36615E+02 -0.22183E+01  0.22992E+01  0.13310E+02      982.00
  0.30369E+00  0.60214E+02    0.16250E+00  0.16250E+00 -0.32500E+00  0.00000E+00  0.00000E+00  0.00000E+00    0.18925E+02  0.17820E+02 -0.36745E+02 -0.21967E+01  0.22685E+01  0.13626E+02      982.00
  0.32657E+00  0.60591E+02    0.17500E+00  0.17500E+00 -0.35000E+00  0.00000E+00  0.00000E+00  0.00000E+00    0.19011E+02  0.17860E+02 -0.36871E+02 -0.21590E+01  0.22603E+01  0.13931E+02      982.00
  0.34939E+00  0.60949E+02    0.18750E+00  0.18750E+00 -0.37500E+00  0.00000E+00  0.00000E+00  0.00000E+00    0.19089E+02  0.17899E+02 -0.36988E+02 -0.21155E+01  0.22600E+01  0.14221E+02      982.00
  0.37215E+00  0.61286E+02    0.20000E+00  0.20000E+00 -0.40000E+00  0.00000E+00  0.00000E+00  0.00000E+00    0.19156E+02  0.17940E+02 -0.37096E+02 -0.20696E+01  0.22659E+01  0.14496E+02      982.00
  0.39485E+00  0.61623E+02    0.21250E+00  0.21250E+00 -0.42500E+00  0.00000E+00  0.00000E+00  0.00000E+00    0.19214E+02  0.17985E+02 -0.37199E+02 -0.20133E+01  0.22552E+01  0.14781E+02      982.00
  0.41749E+00  0.61919E+02    0.22500E+00  0.22500E+00 -0.45000E+00  0.00000E+00  0.00000E+00  0.00000E+00    0.19246E+02  0.18043E+02 -0.37288E+02 -0.19712E+01  0.22694E+01  0.15026E+02      982.00
  0.44007E+00  0.62197E+02    0.23750E+00  0.23750E+00 -0.47500E+00  0.00000E+00  0.00000E+00  0.00000E+00    0.19253E+02  0.18115E+02 -0.37369E+02 -0.19386E+01  0.22791E+01  0.15262E+02      982.00
  0.46260E+00  0.62438E+02    0.25000E+00  0.25000E+00 -0.50000E+00  0.00000E+00  0.00000E+00  0.00000E+00    0.19246E+02  0.18190E+02 -0.37436E+02 -0.19199E+01  0.22993E+01  0.15465E+02      982.00
  0.48508E+00  0.62687E+02    0.26250E+00  0.26250E+00 -0.52500E+00  0.00000E+00  0.00000E+00  0.00000E+00    0.19230E+02  0.18273E+02 -0.37503E+02 -0.19024E+01  0.23126E+01  0.15679E+02      982.00
  0.50752E+00  0.62919E+02    0.27500E+00  0.27500E+00 -0.55000E+00  0.00000E+00  0.00000E+00  0.00000E+00    0.19191E+02  0.18372E+02 -0.37563E+02 -0.18941E+01  0.23109E+01  0.15883E+02      982.00
  0.52990E+00  0.63149E+02    0.28750E+00  0.28750E+00 -0.57500E+00  0.00000E+00  0.00000E+00  0.00000E+00    0.19145E+02  0.18476E+02 -0.37621E+02 -0.18928E+01  0.23085E+01  0.16085E+02      982.00
  0.55224E+00  0.63350E+02    0.30000E+00  0.30000E+00 -0.60000E+00  0.00000E+00  0.00000E+00  0.00000E+00    0.19078E+02  0.18590E+02 -0.37669E+02 -0.19029E+01  0.22926E+01  0.16267E+02      982.00
  0.57454E+00  0.63548E+02    0.31250E+00  0.31250E+00 -0.62500E+00  0.00000E+00  0.00000E+00  0.00000E+00    0.19004E+02  0.18710E+02 -0.37714E+02 -0.19192E+01  0.22746E+01  0.16446E+02      982.00
  0.59680E+00  0.63722E+02    0.32500E+00  0.32500E+00 -0.65000E+00  0.00000E+00  0.00000E+00  0.00000E+00    0.18919E+02  0.18834E+02 -0.37753E+02 -0.19423E+01  0.22463E+01  0.16604E+02      982.00
  0.61902E+00  0.63883E+02    0.33750E+00  0.33750E+00 -0.67500E+00  0.00000E+00  0.00000E+00  0.00000E+00    0.18830E+02  0.18958E+02 -0.37789E+02 -0.19686E+01  0.22142E+01  0.16751E+02      982.00
  0.64120E+00  0.64034E+02    0.35000E+00  0.35000E+00 -0.70000E+00  0.00000E+00  0.00000E+00  0.00000E+00    0.18740E+02  0.19082E+02 -0.37822E+02 -0.19958E+01  0.21803E+01  0.16886E+02      982.00
  0.66335E+00  0.64173E+02    0.36250E+00  0.36250E+00 -0.72500E+00  0.00000E+00  0.00000E+00  0.00000E+00    0.18651E+02  0.19202E+02 -0.37853E+02 -0.20221E+01  0.21463E+01  0.17010E+02      982.00
  0.68547E+00  0.64304E+02    0.37500E+00  0.37500E+00 -0.75000E+00  0.00000E+00  0.00000E+00  0.00000E+00    0.18565E+02  0.19318E+02 -0.37883E+02 -0.20460E+01  0.21133E+01  0.17123E+02      982.00
  0.70756E+00  0.64425E+02    0.38750E+00  0.38750E+00 -0.77500E+00  0.00000E+00  0.00000E+00  0.00000E+00    0.18483E+02  0.19429E+02 -0.37912E+02 -0.20669E+01  0.20824E+01  0.17226E+02      982.00
  0.72963E+00  0.64538E+02    0.40000E+00  0.40000E+00 -0.80000E+00  0.00000E+00  0.00000E+00  0.00000E+00    0.18407E+02  0.19533E+02 -0.37940E+02 -0.20843E+01  0.20540E+01  0.17319E+02      982.00
  0.75167E+00  0.64644E+02    0.41250E+00  0.41250E+00 -0.82500E+00  0.00000E+00  0.00000E+00  0.00000E+00    0.18335E+02  0.19633E+02 -0.37969E+02 -0.20981E+01  0.20263E+01  0.17401E+02      982.00
  0.77370E+00  0.64728E+02    0.42500E+00  0.42500E+00 -0.85000E+00  0.00000E+00  0.00000E+00  0.00000E+00    0.18266E+02  0.19723E+02 -0.37989E+02 -0.21146E+01  0.19959E+01  0.17471E+02      982.00
  0.79571E+00  0.64821E+02    0.43750E+00  0.43750E+00 -0.87500E+00  0.00000E+00  0.00000E+00  0.00000E+00    0.18208E+02  0.19807E+02 -0.38015E+02 -0.21220E+01  0.19756E+01  0.17542E+02      982.00
  0.81770E+00  0.64909E+02    0.45000E+00  0.45000E+00 -0.90000E+00  0.00000E+00  0.00000E+00  0.00000E+00    0.18157E+02  0.19884E+02 -0.38040E+02 -0.21258E+01  0.19587E+01  0.17606E+02      982.00
  0.83967E+00  0.64990E+02    0.46250E+00  0.46250E+00 -0.92500E+00  0.00000E+00  0.00000E+00  0.00000E+00    0.18110E+02  0.19954E+02 -0.38065E+02 -0.21273E+01  0.19440E+01  0.17665E+02      982.00
  0.86164E+00  0.65039E+02    0.47500E+00  0.47500E+00 -0.95000E+00  0.00000E+00  0.00000E+00  0.00000E+00    0.18061E+02  0.20020E+02 -0.38081E+02 -0.21273E+01  0.19223E+01  0.17698E+02      982.00
  0.88360E+00  0.65113E+02    0.48750E+00  0.48750E+00 -0.97500E+00  0.00000E+00  0.00000E+00  0.00000E+00    0.18025E+02  0.20080E+02 -0.38105E+02 -0.21258E+01  0.19110E+01  0.17748E+02      982.00
  0.90554E+00  0.65143E+02    0.50000E+00  0.50000E+00 -0.10000E+01  0.00000E+00  0.00000E+00  0.00000E+00    0.17986E+02  0.20122E+02 -0.38108E+02 -0.21146E+01  0.18986E+01  0.17780E+02      982.00
