          Evm          Svm            E11          E22          E33          E23          E13          E12         SDEV11       SDEV22       SDEV33       SDEV23       SDEV13       SDEV12      TEMP
  0.00000E+00  0.57214E+02    0.00000E+00  0.00000E+00  0.00000E+00  0.00000E+00  0.00000E+00  0.00000E+00    0.19709E+02  0.15491E+02 -0.35199E+02  0.65151E+01  0.67011E+01 -0.83720E+01      982.00
  0.23071E-01  0.57429E+02    0.12500E-01  0.12500E-01 -0.25000E-01  0.00000E+00  0.00000E+00  0.00000E+00    0.19773E+02  0.15634E+02 -0.35407E+02  0.65446E+01  0.65541E+01 -0.83079E+01      982.00
  0.46191E-01  0.57664E+02    0.25000E-01  0.25000E-01 -0.50000E-01  0.00000E+00  0.00000E+00  0.00000E+00    0.19873E+02  0.15746E+02 -0.35619E+02  0.65568E+01  0.64297E+01 -0.82599E+01      982.00
  0.69355E-01  0.57898E+02    0.37500E-01  0.37500E-01 -0.75000E-01  0.00000E+00  0.00000E+00  0.00000E+00    0.19983E+02  0.15842E+02 -0.35825E+02  0.65521E+01  0.63193E+01 -0.82255E+01      982.00
  0.92559E-01  0.58163E+02    0.50000E-01  0.50000E-01 -0.10000E+00  0.00000E+00  0.00000E+00  0.00000E+00    0.20110E+02  0.15937E+02 -0.36047E+02  0.65304E+01  0.62233E+01 -0.82064E+01      982.00
  0.11580E+00  0.58427E+02    0.62500E-01  0.62500E-01 -0.12500E+00  0.00000E+00  0.00000E+00  0.00000E+00    0.20241E+02  0.16022E+02 -0.36263E+02  0.64941E+01  0.61417E+01 -0.82043E+01      982.00
  0.13907E+00  0.58731E+02    0.75000E-01  0.75000E-01 -0.15000E+00  0.00000E+00  0.00000E+00  0.00000E+00    0.20385E+02  0.16117E+02 -0.36501E+02  0.64473E+01  0.60714E+01 -0.82182E+01      982.00
  0.16238E+00  0.59064E+02    0.87500E-01  0.87500E-01 -0.17500E+00  0.00000E+00  0.00000E+00  0.00000E+00    0.20530E+02  0.16222E+02 -0.36753E+02  0.63969E+01  0.60132E+01 -0.82493E+01      982.00
  0.18572E+00  0.59457E+02    0.10000E+00  0.10000E+00 -0.20000E+00  0.00000E+00  0.00000E+00  0.00000E+00    0.20688E+02  0.16350E+02 -0.37038E+02  0.63449E+01  0.59607E+01 -0.83073E+01      982.00
  0.20908E+00  0.59833E+02    0.11250E+00  0.11250E+00 -0.22500E+00  0.00000E+00  0.00000E+00  0.00000E+00    0.20827E+02  0.16487E+02 -0.37314E+02  0.62869E+01  0.59138E+01 -0.83587E+01      982.00
  0.23246E+00  0.60221E+02    0.12500E+00  0.12500E+00 -0.25000E+00  0.00000E+00  0.00000E+00  0.00000E+00    0.20955E+02  0.16641E+02 -0.37596E+02  0.62310E+01  0.58733E+01 -0.84157E+01      982.00
  0.25587E+00  0.60626E+02    0.13750E+00  0.13750E+00 -0.27500E+00  0.00000E+00  0.00000E+00  0.00000E+00    0.21071E+02  0.16816E+02 -0.37887E+02  0.61780E+01  0.58364E+01 -0.84765E+01      982.00
  0.27931E+00  0.61007E+02    0.15000E+00  0.15000E+00 -0.30000E+00  0.00000E+00  0.00000E+00  0.00000E+00    0.21172E+02  0.16991E+02 -0.38164E+02  0.61237E+01  0.58016E+01 -0.85287E+01      982.00
  0.30277E+00  0.61401E+02    0.16250E+00  0.16250E+00 -0.32500E+00  0.00000E+00  0.00000E+00  0.00000E+00    0.21266E+02  0.17181E+02 -0.38447E+02  0.60733E+01  0.57741E+01 -0.85841E+01      982.00
  0.32625E+00  0.61811E+02    0.17500E+00  0.17500E+00 -0.35000E+00  0.00000E+00  0.00000E+00  0.00000E+00    0.21353E+02  0.17387E+02 -0.38740E+02  0.60209E+01  0.57496E+01 -0.86410E+01      982.00
  0.34975E+00  0.62220E+02    0.18750E+00  0.18750E+00 -0.37500E+00  0.00000E+00  0.00000E+00  0.00000E+00    0.21426E+02  0.17608E+02 -0.39034E+02  0.59684E+01  0.57279E+01 -0.86942E+01      982.00
  0.37328E+00  0.62617E+02    0.20000E+00  0.20000E+00 -0.40000E+00  0.00000E+00  0.00000E+00  0.00000E+00    0.21478E+02  0.17845E+02 -0.39322E+02  0.59166E+01  0.57103E+01 -0.87400E+01      982.00
  0.39683E+00  0.62999E+02    0.21250E+00  0.21250E+00 -0.42500E+00  0.00000E+00  0.00000E+00  0.00000E+00    0.21511E+02  0.18089E+02 -0.39600E+02  0.58647E+01  0.56951E+01 -0.87791E+01      982.00
  0.42040E+00  0.63366E+02    0.22500E+00  0.22500E+00 -0.45000E+00  0.00000E+00  0.00000E+00  0.00000E+00    0.21528E+02  0.18340E+02 -0.39869E+02  0.58130E+01  0.56830E+01 -0.88110E+01      982.00
  0.44399E+00  0.63712E+02    0.23750E+00  0.23750E+00 -0.47500E+00  0.00000E+00  0.00000E+00  0.00000E+00    0.21530E+02  0.18596E+02 -0.40126E+02  0.57593E+01  0.56736E+01 -0.88332E+01      982.00
  0.46761E+00  0.64042E+02    0.25000E+00  0.25000E+00 -0.50000E+00  0.00000E+00  0.00000E+00  0.00000E+00    0.21516E+02  0.18855E+02 -0.40371E+02  0.57056E+01  0.56669E+01 -0.88494E+01      982.00
  0.49125E+00  0.64358E+02    0.26250E+00  0.26250E+00 -0.52500E+00  0.00000E+00  0.00000E+00  0.00000E+00    0.21491E+02  0.19118E+02 -0.40609E+02  0.56513E+01  0.56618E+01 -0.88575E+01      982.00
  0.51491E+00  0.64653E+02    0.27500E+00  0.27500E+00 -0.55000E+00  0.00000E+00  0.00000E+00  0.00000E+00    0.21452E+02  0.19381E+02 -0.40833E+02  0.55952E+01  0.56589E+01 -0.88571E+01      982.00
  0.53859E+00  0.64932E+02    0.28750E+00  0.28750E+00 -0.57500E+00  0.00000E+00  0.00000E+00  0.00000E+00    0.21407E+02  0.19641E+02 -0.41048E+02  0.55362E+01  0.56532E+01 -0.88494E+01      982.00
  0.56230E+00  0.65193E+02    0.30000E+00  0.30000E+00 -0.60000E+00  0.00000E+00  0.00000E+00  0.00000E+00    0.21349E+02  0.19901E+02 -0.41250E+02  0.54782E+01  0.56532E+01 -0.88350E+01      982.00
  0.58603E+00  0.65416E+02    0.31250E+00  0.31250E+00 -0.62500E+00  0.00000E+00  0.00000E+00  0.00000E+00    0.21265E+02  0.20162E+02 -0.41427E+02  0.54242E+01  0.56512E+01 -0.88102E+01      982.00
  0.60978E+00  0.65642E+02    0.32500E+00  0.32500E+00 -0.65000E+00  0.00000E+00  0.00000E+00  0.00000E+00    0.21188E+02  0.20418E+02 -0.41606E+02  0.53651E+01  0.56527E+01 -0.87833E+01      982.00
  0.63355E+00  0.65854E+02    0.33750E+00  0.33750E+00 -0.67500E+00  0.00000E+00  0.00000E+00  0.00000E+00    0.21106E+02  0.20669E+02 -0.41775E+02  0.53036E+01  0.56551E+01 -0.87508E+01      982.00
  0.65733E+00  0.66046E+02    0.35000E+00  0.35000E+00 -0.70000E+00  0.00000E+00  0.00000E+00  0.00000E+00    0.21016E+02  0.20914E+02 -0.41930E+02  0.52417E+01  0.56595E+01 -0.87132E+01      982.00
  0.68114E+00  0.66218E+02    0.36250E+00  0.36250E+00 -0.72500E+00  0.00000E+00  0.00000E+00  0.00000E+00    0.20905E+02  0.21169E+02 -0.42074E+02  0.51812E+01  0.56610E+01 -0.86621E+01      982.00
  0.70497E+00  0.66383E+02    0.37500E+00  0.37500E+00 -0.75000E+00  0.00000E+00  0.00000E+00  0.00000E+00    0.20805E+02  0.21406E+02 -0.42211E+02  0.51188E+01  0.56647E+01 -0.86147E+01      982.00
  0.72881E+00  0.66534E+02    0.38750E+00  0.38750E+00 -0.77500E+00  0.00000E+00  0.00000E+00  0.00000E+00    0.20701E+02  0.21636E+02 -0.42337E+02  0.50549E+01  0.56702E+01 -0.85642E+01      982.00
  0.75267E+00  0.66672E+02    0.40000E+00  0.40000E+00 -0.80000E+00  0.00000E+00  0.00000E+00  0.00000E+00    0.20594E+02  0.21861E+02 -0.42455E+02  0.49907E+01  0.56760E+01 -0.85091E+01      982.00
  0.77655E+00  0.66801E+02    0.41250E+00  0.41250E+00 -0.82500E+00  0.00000E+00  0.00000E+00  0.00000E+00    0.20462E+02  0.22109E+02 -0.42571E+02  0.49190E+01  0.56799E+01 -0.84341E+01      982.00
  0.80045E+00  0.66913E+02    0.42500E+00  0.42500E+00 -0.85000E+00  0.00000E+00  0.00000E+00  0.00000E+00    0.20347E+02  0.22322E+02 -0.42669E+02  0.48548E+01  0.56857E+01 -0.83723E+01      982.00
  0.82436E+00  0.67022E+02    0.43750E+00  0.43750E+00 -0.87500E+00  0.00000E+00  0.00000E+00  0.00000E+00    0.20234E+02  0.22531E+02 -0.42765E+02  0.47891E+01  0.56920E+01 -0.83079E+01      982.00
  0.84829E+00  0.67121E+02    0.45000E+00  0.45000E+00 -0.90000E+00  0.00000E+00  0.00000E+00  0.00000E+00    0.20118E+02  0.22736E+02 -0.42854E+02  0.47249E+01  0.56990E+01 -0.82407E+01      982.00
  0.87223E+00  0.67213E+02    0.46250E+00  0.46250E+00 -0.92500E+00  0.00000E+00  0.00000E+00  0.00000E+00    0.20000E+02  0.22937E+02 -0.42937E+02  0.46603E+01  0.57062E+01 -0.81709E+01      982.00
  0.89619E+00  0.67227E+02    0.47500E+00  0.47500E+00 -0.95000E+00  0.00000E+00  0.00000E+00  0.00000E+00    0.19889E+02  0.23089E+02 -0.42978E+02  0.45648E+01  0.56820E+01 -0.80900E+01      982.00
  0.92016E+00  0.67259E+02    0.48750E+00  0.48750E+00 -0.97500E+00  0.00000E+00  0.00000E+00  0.00000E+00    0.19793E+02  0.23226E+02 -0.43019E+02  0.45002E+01  0.56756E+01 -0.80351E+01      982.00
  0.94415E+00  0.67274E+02    0.50000E+00  0.50000E+00 -0.10000E+01  0.00000E+00  0.00000E+00  0.00000E+00    0.19674E+02  0.23381E+02 -0.43055E+02  0.44219E+01  0.56609E+01 -0.79543E+01      982.00
