          Evm          Svm            E11          E22          E33          E23          E13          E12         SDEV11       SDEV22       SDEV33       SDEV23       SDEV13       SDEV12      TEMP
  0.00000E+00  0.59854E+02    0.00000E+00  0.00000E+00  0.00000E+00  0.00000E+00  0.00000E+00  0.00000E+00    0.15226E+02  0.23104E+02 -0.38331E+02 -0.27593E+01  0.76158E+01  0.33308E+01      982.00
  0.24015E-01  0.59519E+02    0.12500E-01  0.12500E-01 -0.25000E-01  0.00000E+00  0.00000E+00  0.00000E+00    0.14963E+02  0.23226E+02 -0.38188E+02 -0.26483E+01  0.72097E+01  0.33180E+01      982.00
  0.48076E-01  0.59236E+02    0.25000E-01  0.25000E-01 -0.50000E-01  0.00000E+00  0.00000E+00  0.00000E+00    0.14722E+02  0.23345E+02 -0.38067E+02 -0.25349E+01  0.68410E+01  0.33168E+01      982.00
  0.72175E-01  0.59054E+02    0.37500E-01  0.37500E-01 -0.75000E-01  0.00000E+00  0.00000E+00  0.00000E+00    0.14528E+02  0.23468E+02 -0.37996E+02 -0.24212E+01  0.65400E+01  0.33325E+01      982.00
  0.96302E-01  0.59009E+02    0.50000E-01  0.50000E-01 -0.10000E+00  0.00000E+00  0.00000E+00  0.00000E+00    0.14388E+02  0.23609E+02 -0.37997E+02 -0.23136E+01  0.63164E+01  0.33654E+01      982.00
  0.12045E+00  0.59105E+02    0.62500E-01  0.62500E-01 -0.12500E+00  0.00000E+00  0.00000E+00  0.00000E+00    0.14304E+02  0.23776E+02 -0.38080E+02 -0.22151E+01  0.61608E+01  0.34100E+01      982.00
  0.14461E+00  0.59325E+02    0.75000E-01  0.75000E-01 -0.15000E+00  0.00000E+00  0.00000E+00  0.00000E+00    0.14267E+02  0.23967E+02 -0.38233E+02 -0.21270E+01  0.60660E+01  0.34619E+01      982.00
  0.16878E+00  0.59648E+02    0.87500E-01  0.87500E-01 -0.17500E+00  0.00000E+00  0.00000E+00  0.00000E+00    0.14265E+02  0.24181E+02 -0.38445E+02 -0.20498E+01  0.60246E+01  0.35175E+01      982.00
  0.19295E+00  0.60068E+02    0.10000E+00  0.10000E+00 -0.20000E+00  0.00000E+00  0.00000E+00  0.00000E+00    0.14296E+02  0.24416E+02 -0.38712E+02 -0.19920E+01  0.60342E+01  0.35739E+01      982.00
  0.21711E+00  0.60532E+02    0.11250E+00  0.11250E+00 -0.22500E+00  0.00000E+00  0.00000E+00  0.00000E+00    0.14341E+02  0.24663E+02 -0.39004E+02 -0.19361E+01  0.60732E+01  0.36260E+01      982.00
  0.24128E+00  0.61041E+02    0.12500E+00  0.12500E+00 -0.25000E+00  0.00000E+00  0.00000E+00  0.00000E+00    0.14411E+02  0.24914E+02 -0.39324E+02 -0.18961E+01  0.61302E+01  0.36701E+01      982.00
  0.26544E+00  0.61558E+02    0.13750E+00  0.13750E+00 -0.27500E+00  0.00000E+00  0.00000E+00  0.00000E+00    0.14488E+02  0.25161E+02 -0.39650E+02 -0.18613E+01  0.61959E+01  0.37051E+01      982.00
  0.28959E+00  0.62067E+02    0.15000E+00  0.15000E+00 -0.30000E+00  0.00000E+00  0.00000E+00  0.00000E+00    0.14569E+02  0.25401E+02 -0.39971E+02 -0.18296E+01  0.62649E+01  0.37310E+01      982.00
  0.31374E+00  0.62556E+02    0.16250E+00  0.16250E+00 -0.32500E+00  0.00000E+00  0.00000E+00  0.00000E+00    0.14650E+02  0.25630E+02 -0.40280E+02 -0.17994E+01  0.63338E+01  0.37479E+01      982.00
  0.33789E+00  0.63017E+02    0.17500E+00  0.17500E+00 -0.35000E+00  0.00000E+00  0.00000E+00  0.00000E+00    0.14730E+02  0.25845E+02 -0.40574E+02 -0.17691E+01  0.63954E+01  0.37562E+01      982.00
  0.36203E+00  0.63437E+02    0.18750E+00  0.18750E+00 -0.37500E+00  0.00000E+00  0.00000E+00  0.00000E+00    0.14796E+02  0.26042E+02 -0.40838E+02 -0.17355E+01  0.64716E+01  0.37547E+01      982.00
  0.38617E+00  0.63841E+02    0.20000E+00  0.20000E+00 -0.40000E+00  0.00000E+00  0.00000E+00  0.00000E+00    0.14866E+02  0.26230E+02 -0.41096E+02 -0.17057E+01  0.65292E+01  0.37482E+01      982.00
  0.41031E+00  0.64212E+02    0.21250E+00  0.21250E+00 -0.42500E+00  0.00000E+00  0.00000E+00  0.00000E+00    0.14930E+02  0.26404E+02 -0.41334E+02 -0.16757E+01  0.65817E+01  0.37351E+01      982.00
  0.43445E+00  0.64553E+02    0.22500E+00  0.22500E+00 -0.45000E+00  0.00000E+00  0.00000E+00  0.00000E+00    0.14988E+02  0.26566E+02 -0.41554E+02 -0.16451E+01  0.66295E+01  0.37164E+01      982.00
  0.45859E+00  0.64865E+02    0.23750E+00  0.23750E+00 -0.47500E+00  0.00000E+00  0.00000E+00  0.00000E+00    0.15040E+02  0.26715E+02 -0.41755E+02 -0.16140E+01  0.66730E+01  0.36926E+01      982.00
  0.48273E+00  0.65150E+02    0.25000E+00  0.25000E+00 -0.50000E+00  0.00000E+00  0.00000E+00  0.00000E+00    0.15087E+02  0.26853E+02 -0.41940E+02 -0.15822E+01  0.67126E+01  0.36643E+01      982.00
  0.50687E+00  0.65410E+02    0.26250E+00  0.26250E+00 -0.52500E+00  0.00000E+00  0.00000E+00  0.00000E+00    0.15128E+02  0.26981E+02 -0.42109E+02 -0.15500E+01  0.67486E+01  0.36320E+01      982.00
  0.53101E+00  0.65647E+02    0.27500E+00  0.27500E+00 -0.55000E+00  0.00000E+00  0.00000E+00  0.00000E+00    0.15163E+02  0.27100E+02 -0.42264E+02 -0.15175E+01  0.67814E+01  0.35959E+01      982.00
  0.55516E+00  0.65863E+02    0.28750E+00  0.28750E+00 -0.57500E+00  0.00000E+00  0.00000E+00  0.00000E+00    0.15194E+02  0.27211E+02 -0.42405E+02 -0.14846E+01  0.68115E+01  0.35566E+01      982.00
  0.57930E+00  0.66060E+02    0.30000E+00  0.30000E+00 -0.60000E+00  0.00000E+00  0.00000E+00  0.00000E+00    0.15220E+02  0.27313E+02 -0.42533E+02 -0.14514E+01  0.68416E+01  0.35141E+01      982.00
  0.60344E+00  0.66240E+02    0.31250E+00  0.31250E+00 -0.62500E+00  0.00000E+00  0.00000E+00  0.00000E+00    0.15242E+02  0.27409E+02 -0.42651E+02 -0.14181E+01  0.68671E+01  0.34690E+01      982.00
  0.62759E+00  0.66396E+02    0.32500E+00  0.32500E+00 -0.65000E+00  0.00000E+00  0.00000E+00  0.00000E+00    0.15251E+02  0.27501E+02 -0.42751E+02 -0.13817E+01  0.69011E+01  0.34136E+01      982.00
  0.65174E+00  0.66547E+02    0.33750E+00  0.33750E+00 -0.67500E+00  0.00000E+00  0.00000E+00  0.00000E+00    0.15266E+02  0.27585E+02 -0.42851E+02 -0.13478E+01  0.69220E+01  0.33642E+01      982.00
  0.67588E+00  0.66684E+02    0.35000E+00  0.35000E+00 -0.70000E+00  0.00000E+00  0.00000E+00  0.00000E+00    0.15277E+02  0.27665E+02 -0.42942E+02 -0.13142E+01  0.69415E+01  0.33121E+01      982.00
  0.70003E+00  0.66809E+02    0.36250E+00  0.36250E+00 -0.72500E+00  0.00000E+00  0.00000E+00  0.00000E+00    0.15285E+02  0.27739E+02 -0.43025E+02 -0.12808E+01  0.69599E+01  0.32579E+01      982.00
  0.72418E+00  0.66924E+02    0.37500E+00  0.37500E+00 -0.75000E+00  0.00000E+00  0.00000E+00  0.00000E+00    0.15291E+02  0.27810E+02 -0.43101E+02 -0.12474E+01  0.69774E+01  0.32019E+01      982.00
  0.74833E+00  0.67029E+02    0.38750E+00  0.38750E+00 -0.77500E+00  0.00000E+00  0.00000E+00  0.00000E+00    0.15293E+02  0.27877E+02 -0.43170E+02 -0.12140E+01  0.69940E+01  0.31442E+01      982.00
  0.77248E+00  0.67124E+02    0.40000E+00  0.40000E+00 -0.80000E+00  0.00000E+00  0.00000E+00  0.00000E+00    0.15294E+02  0.27940E+02 -0.43234E+02 -0.11807E+01  0.70100E+01  0.30848E+01      982.00
  0.79664E+00  0.67212E+02    0.41250E+00  0.41250E+00 -0.82500E+00  0.00000E+00  0.00000E+00  0.00000E+00    0.15292E+02  0.28000E+02 -0.43292E+02 -0.11473E+01  0.70254E+01  0.30239E+01      982.00
  0.82079E+00  0.67292E+02    0.42500E+00  0.42500E+00 -0.85000E+00  0.00000E+00  0.00000E+00  0.00000E+00    0.15288E+02  0.28057E+02 -0.43345E+02 -0.11140E+01  0.70402E+01  0.29615E+01      982.00
  0.84495E+00  0.67285E+02    0.43750E+00  0.43750E+00 -0.87500E+00  0.00000E+00  0.00000E+00  0.00000E+00    0.15283E+02  0.28071E+02 -0.43354E+02 -0.10942E+01  0.69876E+01  0.29139E+01      982.00
  0.86911E+00  0.67283E+02    0.45000E+00  0.45000E+00 -0.90000E+00  0.00000E+00  0.00000E+00  0.00000E+00    0.15259E+02  0.28102E+02 -0.43361E+02 -0.10588E+01  0.69574E+01  0.28465E+01      982.00
  0.89328E+00  0.67281E+02    0.46250E+00  0.46250E+00 -0.92500E+00  0.00000E+00  0.00000E+00  0.00000E+00    0.15239E+02  0.28128E+02 -0.43367E+02 -0.10233E+01  0.69336E+01  0.27792E+01      982.00
  0.91745E+00  0.67279E+02    0.47500E+00  0.47500E+00 -0.95000E+00  0.00000E+00  0.00000E+00  0.00000E+00    0.15219E+02  0.28154E+02 -0.43373E+02 -0.98822E+00  0.69115E+01  0.27119E+01      982.00
  0.94162E+00  0.67276E+02    0.48750E+00  0.48750E+00 -0.97500E+00  0.00000E+00  0.00000E+00  0.00000E+00    0.15204E+02  0.28174E+02 -0.43378E+02 -0.95529E+00  0.68929E+01  0.26460E+01      982.00
  0.96580E+00  0.67273E+02    0.50000E+00  0.50000E+00 -0.10000E+01  0.00000E+00  0.00000E+00  0.00000E+00    0.15179E+02  0.28203E+02 -0.43381E+02 -0.91988E+00  0.68712E+01  0.25762E+01      982.00
