          Evm          Svm            E11          E22          E33          E23          E13          E12         SDEV11       SDEV22       SDEV33       SDEV23       SDEV13       SDEV12      TEMP
  0.00000E+00  0.53626E+02    0.00000E+00  0.00000E+00  0.00000E+00  0.00000E+00  0.00000E+00  0.00000E+00    0.21379E+02  0.13692E+02 -0.35071E+02 -0.24294E+01  0.35915E+01 -0.15803E+01      982.00
  0.24525E-01  0.53537E+02    0.12500E-01  0.12500E-01 -0.25000E-01  0.00000E+00  0.00000E+00  0.00000E+00    0.21502E+02  0.13505E+02 -0.35007E+02 -0.25656E+01  0.32728E+01 -0.17334E+01      982.00
  0.49046E-01  0.53490E+02    0.25000E-01  0.25000E-01 -0.50000E-01  0.00000E+00  0.00000E+00  0.00000E+00    0.21621E+02  0.13349E+02 -0.34970E+02 -0.26699E+01  0.29643E+01 -0.18732E+01      982.00
  0.73562E-01  0.53520E+02    0.37500E-01  0.37500E-01 -0.75000E-01  0.00000E+00  0.00000E+00  0.00000E+00    0.21776E+02  0.13199E+02 -0.34975E+02 -0.27890E+01  0.26731E+01 -0.20118E+01      982.00
  0.98068E-01  0.53651E+02    0.50000E-01  0.50000E-01 -0.10000E+00  0.00000E+00  0.00000E+00  0.00000E+00    0.21981E+02  0.13053E+02 -0.35034E+02 -0.29287E+01  0.24097E+01 -0.21543E+01      982.00
  0.12256E+00  0.53903E+02    0.62500E-01  0.62500E-01 -0.12500E+00  0.00000E+00  0.00000E+00  0.00000E+00    0.22243E+02  0.12917E+02 -0.35159E+02 -0.30921E+01  0.21789E+01 -0.23047E+01      982.00
  0.14702E+00  0.54268E+02    0.75000E-01  0.75000E-01 -0.15000E+00  0.00000E+00  0.00000E+00  0.00000E+00    0.22555E+02  0.12793E+02 -0.35348E+02 -0.32745E+01  0.19807E+01 -0.24638E+01      982.00
  0.17144E+00  0.54748E+02    0.87500E-01  0.87500E-01 -0.17500E+00  0.00000E+00  0.00000E+00  0.00000E+00    0.22916E+02  0.12687E+02 -0.35603E+02 -0.34745E+01  0.18136E+01 -0.26306E+01      982.00
  0.19583E+00  0.55304E+02    0.10000E+00  0.10000E+00 -0.20000E+00  0.00000E+00  0.00000E+00  0.00000E+00    0.23304E+02  0.12595E+02 -0.35900E+02 -0.36897E+01  0.16701E+01 -0.28025E+01      982.00
  0.22017E+00  0.55927E+02    0.11250E+00  0.11250E+00 -0.22500E+00  0.00000E+00  0.00000E+00  0.00000E+00    0.23710E+02  0.12527E+02 -0.36237E+02 -0.39030E+01  0.15531E+01 -0.29768E+01      982.00
  0.24447E+00  0.56602E+02    0.12500E+00  0.12500E+00 -0.25000E+00  0.00000E+00  0.00000E+00  0.00000E+00    0.24125E+02  0.12482E+02 -0.36606E+02 -0.41219E+01  0.14513E+01 -0.31493E+01      982.00
  0.26872E+00  0.57300E+02    0.13750E+00  0.13750E+00 -0.27500E+00  0.00000E+00  0.00000E+00  0.00000E+00    0.24535E+02  0.12457E+02 -0.36992E+02 -0.43278E+01  0.13691E+01 -0.33194E+01      982.00
  0.29293E+00  0.58002E+02    0.15000E+00  0.15000E+00 -0.30000E+00  0.00000E+00  0.00000E+00  0.00000E+00    0.24932E+02  0.12451E+02 -0.37383E+02 -0.45317E+01  0.12959E+01 -0.34830E+01      982.00
  0.31710E+00  0.58713E+02    0.16250E+00  0.16250E+00 -0.32500E+00  0.00000E+00  0.00000E+00  0.00000E+00    0.25320E+02  0.12465E+02 -0.37785E+02 -0.47122E+01  0.12373E+01 -0.36401E+01      982.00
  0.34123E+00  0.59413E+02    0.17500E+00  0.17500E+00 -0.35000E+00  0.00000E+00  0.00000E+00  0.00000E+00    0.25689E+02  0.12496E+02 -0.38185E+02 -0.48764E+01  0.11872E+01 -0.37885E+01      982.00
  0.36533E+00  0.60077E+02    0.18750E+00  0.18750E+00 -0.37500E+00  0.00000E+00  0.00000E+00  0.00000E+00    0.26028E+02  0.12537E+02 -0.38565E+02 -0.50364E+01  0.11416E+01 -0.39279E+01      982.00
  0.38941E+00  0.60723E+02    0.20000E+00  0.20000E+00 -0.40000E+00  0.00000E+00  0.00000E+00  0.00000E+00    0.26349E+02  0.12594E+02 -0.38943E+02 -0.51664E+01  0.11056E+01 -0.40583E+01      982.00
  0.41346E+00  0.61345E+02    0.21250E+00  0.21250E+00 -0.42500E+00  0.00000E+00  0.00000E+00  0.00000E+00    0.26651E+02  0.12661E+02 -0.39311E+02 -0.52761E+01  0.10749E+01 -0.41781E+01      982.00
  0.43749E+00  0.61924E+02    0.22500E+00  0.22500E+00 -0.45000E+00  0.00000E+00  0.00000E+00  0.00000E+00    0.26921E+02  0.12735E+02 -0.39655E+02 -0.53810E+01  0.10466E+01 -0.42909E+01      982.00
  0.46150E+00  0.62477E+02    0.23750E+00  0.23750E+00 -0.47500E+00  0.00000E+00  0.00000E+00  0.00000E+00    0.27175E+02  0.12817E+02 -0.39991E+02 -0.54538E+01  0.10257E+01 -0.43920E+01      982.00
  0.48551E+00  0.62992E+02    0.25000E+00  0.25000E+00 -0.50000E+00  0.00000E+00  0.00000E+00  0.00000E+00    0.27406E+02  0.12903E+02 -0.40309E+02 -0.55106E+01  0.10085E+01 -0.44842E+01      982.00
  0.50950E+00  0.63458E+02    0.26250E+00  0.26250E+00 -0.52500E+00  0.00000E+00  0.00000E+00  0.00000E+00    0.27606E+02  0.12995E+02 -0.40600E+02 -0.55523E+01  0.99448E+00 -0.45650E+01      982.00
  0.53349E+00  0.63928E+02    0.27500E+00  0.27500E+00 -0.55000E+00  0.00000E+00  0.00000E+00  0.00000E+00    0.27805E+02  0.13089E+02 -0.40894E+02 -0.55929E+01  0.98249E+00 -0.46505E+01      982.00
  0.55748E+00  0.64346E+02    0.28750E+00  0.28750E+00 -0.57500E+00  0.00000E+00  0.00000E+00  0.00000E+00    0.27979E+02  0.13184E+02 -0.41163E+02 -0.56033E+01  0.97569E+00 -0.47182E+01      982.00
  0.58147E+00  0.64777E+02    0.30000E+00  0.30000E+00 -0.60000E+00  0.00000E+00  0.00000E+00  0.00000E+00    0.28157E+02  0.13285E+02 -0.41441E+02 -0.56064E+01  0.96838E+00 -0.47927E+01      982.00
  0.60546E+00  0.65138E+02    0.31250E+00  0.31250E+00 -0.62500E+00  0.00000E+00  0.00000E+00  0.00000E+00    0.28300E+02  0.13382E+02 -0.41682E+02 -0.55900E+01  0.96641E+00 -0.48441E+01      982.00
  0.62946E+00  0.65513E+02    0.32500E+00  0.32500E+00 -0.65000E+00  0.00000E+00  0.00000E+00  0.00000E+00    0.28450E+02  0.13482E+02 -0.41933E+02 -0.55610E+01  0.96468E+00 -0.49016E+01      982.00
  0.65346E+00  0.65795E+02    0.33750E+00  0.33750E+00 -0.67500E+00  0.00000E+00  0.00000E+00  0.00000E+00    0.28557E+02  0.13571E+02 -0.42128E+02 -0.55253E+01  0.96703E+00 -0.49286E+01      982.00
  0.67747E+00  0.66065E+02    0.35000E+00  0.35000E+00 -0.70000E+00  0.00000E+00  0.00000E+00  0.00000E+00    0.28657E+02  0.13658E+02 -0.42315E+02 -0.54959E+01  0.96671E+00 -0.49523E+01      982.00
  0.70149E+00  0.66338E+02    0.36250E+00  0.36250E+00 -0.72500E+00  0.00000E+00  0.00000E+00  0.00000E+00    0.28760E+02  0.13746E+02 -0.42506E+02 -0.54562E+01  0.96775E+00 -0.49811E+01      982.00
  0.72552E+00  0.66592E+02    0.37500E+00  0.37500E+00 -0.75000E+00  0.00000E+00  0.00000E+00  0.00000E+00    0.28853E+02  0.13831E+02 -0.42684E+02 -0.54201E+01  0.96756E+00 -0.50018E+01      982.00
  0.74956E+00  0.66830E+02    0.38750E+00  0.38750E+00 -0.77500E+00  0.00000E+00  0.00000E+00  0.00000E+00    0.28939E+02  0.13914E+02 -0.42853E+02 -0.53742E+01  0.96969E+00 -0.50212E+01      982.00
  0.77360E+00  0.67056E+02    0.40000E+00  0.40000E+00 -0.80000E+00  0.00000E+00  0.00000E+00  0.00000E+00    0.29020E+02  0.13996E+02 -0.43016E+02 -0.53251E+01  0.97243E+00 -0.50363E+01      982.00
  0.79766E+00  0.67257E+02    0.41250E+00  0.41250E+00 -0.82500E+00  0.00000E+00  0.00000E+00  0.00000E+00    0.29090E+02  0.14072E+02 -0.43162E+02 -0.52773E+01  0.97620E+00 -0.50472E+01      982.00
  0.82172E+00  0.67455E+02    0.42500E+00  0.42500E+00 -0.85000E+00  0.00000E+00  0.00000E+00  0.00000E+00    0.29159E+02  0.14146E+02 -0.43305E+02 -0.52338E+01  0.97761E+00 -0.50537E+01      982.00
  0.84580E+00  0.67628E+02    0.43750E+00  0.43750E+00 -0.87500E+00  0.00000E+00  0.00000E+00  0.00000E+00    0.29220E+02  0.14214E+02 -0.43434E+02 -0.51820E+01  0.98158E+00 -0.50561E+01      982.00
  0.86988E+00  0.67726E+02    0.45000E+00  0.45000E+00 -0.90000E+00  0.00000E+00  0.00000E+00  0.00000E+00    0.29253E+02  0.14265E+02 -0.43518E+02 -0.50999E+01  0.97407E+00 -0.50425E+01      982.00
  0.89398E+00  0.67823E+02    0.46250E+00  0.46250E+00 -0.92500E+00  0.00000E+00  0.00000E+00  0.00000E+00    0.29288E+02  0.14314E+02 -0.43602E+02 -0.50224E+01  0.97134E+00 -0.50277E+01      982.00
  0.91809E+00  0.67921E+02    0.47500E+00  0.47500E+00 -0.95000E+00  0.00000E+00  0.00000E+00  0.00000E+00    0.29321E+02  0.14362E+02 -0.43683E+02 -0.49581E+01  0.96963E+00 -0.50127E+01      982.00
  0.94220E+00  0.67994E+02    0.48750E+00  0.48750E+00 -0.97500E+00  0.00000E+00  0.00000E+00  0.00000E+00    0.29347E+02  0.14403E+02 -0.43750E+02 -0.48799E+01  0.96790E+00 -0.49935E+01      982.00
  0.96633E+00  0.68073E+02    0.50000E+00  0.50000E+00 -0.10000E+01  0.00000E+00  0.00000E+00  0.00000E+00    0.29374E+02  0.14444E+02 -0.43818E+02 -0.48198E+01  0.96639E+00 -0.49736E+01      982.00
