          Evm          Svm            E11          E22          E33          E23          E13          E12         SDEV11       SDEV22       SDEV33       SDEV23       SDEV13       SDEV12      TEMP
  0.00000E+00  0.53916E+02    0.00000E+00  0.00000E+00  0.00000E+00  0.00000E+00  0.00000E+00  0.00000E+00    0.14191E+02  0.20110E+02 -0.34300E+02 -0.28837E+01  0.20176E+01  0.80910E+01      982.00
  0.23857E-01  0.53733E+02    0.12500E-01  0.12500E-01 -0.25000E-01  0.00000E+00  0.00000E+00  0.00000E+00    0.14452E+02  0.19726E+02 -0.34178E+02 -0.27346E+01  0.22017E+01  0.81862E+01      982.00
  0.47709E-01  0.53688E+02    0.25000E-01  0.25000E-01 -0.50000E-01  0.00000E+00  0.00000E+00  0.00000E+00    0.14835E+02  0.19293E+02 -0.34128E+02 -0.25006E+01  0.24298E+01  0.83757E+01      982.00
  0.71547E-01  0.53779E+02    0.37500E-01  0.37500E-01 -0.75000E-01  0.00000E+00  0.00000E+00  0.00000E+00    0.15334E+02  0.18806E+02 -0.34140E+02 -0.21882E+01  0.26916E+01  0.86525E+01      982.00
  0.95353E-01  0.53962E+02    0.50000E-01  0.50000E-01 -0.10000E+00  0.00000E+00  0.00000E+00  0.00000E+00    0.15881E+02  0.18306E+02 -0.34188E+02 -0.18448E+01  0.29537E+01  0.89695E+01      982.00
  0.11911E+00  0.54201E+02    0.62500E-01  0.62500E-01 -0.12500E+00  0.00000E+00  0.00000E+00  0.00000E+00    0.16397E+02  0.17857E+02 -0.34254E+02 -0.15159E+01  0.31865E+01  0.92889E+01      982.00
  0.14281E+00  0.54487E+02    0.75000E-01  0.75000E-01 -0.15000E+00  0.00000E+00  0.00000E+00  0.00000E+00    0.16832E+02  0.17508E+02 -0.34340E+02 -0.12215E+01  0.33793E+01  0.95995E+01      982.00
  0.16644E+00  0.54820E+02    0.87500E-01  0.87500E-01 -0.17500E+00  0.00000E+00  0.00000E+00  0.00000E+00    0.17187E+02  0.17264E+02 -0.34451E+02 -0.95774E+00  0.35390E+01  0.99066E+01      982.00
  0.19001E+00  0.55190E+02    0.10000E+00  0.10000E+00 -0.20000E+00  0.00000E+00  0.00000E+00  0.00000E+00    0.17469E+02  0.17117E+02 -0.34585E+02 -0.72212E+00  0.36709E+01  0.10206E+02      982.00
  0.21351E+00  0.55585E+02    0.11250E+00  0.11250E+00 -0.22500E+00  0.00000E+00  0.00000E+00  0.00000E+00    0.17695E+02  0.17043E+02 -0.34738E+02 -0.50935E+00  0.37826E+01  0.10497E+02      982.00
  0.23695E+00  0.55993E+02    0.12500E+00  0.12500E+00 -0.25000E+00  0.00000E+00  0.00000E+00  0.00000E+00    0.17882E+02  0.17022E+02 -0.34904E+02 -0.31686E+00  0.38777E+01  0.10772E+02      982.00
  0.26032E+00  0.56390E+02    0.13750E+00  0.13750E+00 -0.27500E+00  0.00000E+00  0.00000E+00  0.00000E+00    0.18032E+02  0.17038E+02 -0.35070E+02 -0.14317E+00  0.39594E+01  0.11026E+02      982.00
  0.28364E+00  0.56767E+02    0.15000E+00  0.15000E+00 -0.30000E+00  0.00000E+00  0.00000E+00  0.00000E+00    0.18154E+02  0.17080E+02 -0.35234E+02  0.78283E-03  0.40272E+01  0.11250E+02      982.00
  0.30692E+00  0.57124E+02    0.16250E+00  0.16250E+00 -0.32500E+00  0.00000E+00  0.00000E+00  0.00000E+00    0.18262E+02  0.17132E+02 -0.35394E+02  0.12605E+00  0.40877E+01  0.11452E+02      982.00
  0.33015E+00  0.57461E+02    0.17500E+00  0.17500E+00 -0.35000E+00  0.00000E+00  0.00000E+00  0.00000E+00    0.18360E+02  0.17184E+02 -0.35544E+02  0.24555E+00  0.41458E+01  0.11638E+02      982.00
  0.35335E+00  0.57769E+02    0.18750E+00  0.18750E+00 -0.37500E+00  0.00000E+00  0.00000E+00  0.00000E+00    0.18449E+02  0.17239E+02 -0.35688E+02  0.33756E+00  0.41952E+01  0.11795E+02      982.00
  0.37652E+00  0.58052E+02    0.20000E+00  0.20000E+00 -0.40000E+00  0.00000E+00  0.00000E+00  0.00000E+00    0.18532E+02  0.17290E+02 -0.35822E+02  0.41625E+00  0.42409E+01  0.11934E+02      982.00
  0.39966E+00  0.58293E+02    0.21250E+00  0.21250E+00 -0.42500E+00  0.00000E+00  0.00000E+00  0.00000E+00    0.18605E+02  0.17329E+02 -0.35934E+02  0.49072E+00  0.42833E+01  0.12052E+02      982.00
  0.42277E+00  0.58530E+02    0.22500E+00  0.22500E+00 -0.45000E+00  0.00000E+00  0.00000E+00  0.00000E+00    0.18681E+02  0.17369E+02 -0.36050E+02  0.54734E+00  0.43235E+01  0.12157E+02      982.00
  0.44587E+00  0.58746E+02    0.23750E+00  0.23750E+00 -0.47500E+00  0.00000E+00  0.00000E+00  0.00000E+00    0.18755E+02  0.17402E+02 -0.36157E+02  0.59591E+00  0.43619E+01  0.12249E+02      982.00
  0.46895E+00  0.58942E+02    0.25000E+00  0.25000E+00 -0.50000E+00  0.00000E+00  0.00000E+00  0.00000E+00    0.18828E+02  0.17422E+02 -0.36250E+02  0.64895E+00  0.44062E+01  0.12337E+02      982.00
  0.49201E+00  0.59118E+02    0.26250E+00  0.26250E+00 -0.52500E+00  0.00000E+00  0.00000E+00  0.00000E+00    0.18897E+02  0.17442E+02 -0.36339E+02  0.68377E+00  0.44421E+01  0.12404E+02      982.00
  0.51506E+00  0.59269E+02    0.27500E+00  0.27500E+00 -0.55000E+00  0.00000E+00  0.00000E+00  0.00000E+00    0.18961E+02  0.17454E+02 -0.36415E+02  0.71629E+00  0.44786E+01  0.12460E+02      982.00
  0.53810E+00  0.59411E+02    0.28750E+00  0.28750E+00 -0.57500E+00  0.00000E+00  0.00000E+00  0.00000E+00    0.19025E+02  0.17463E+02 -0.36489E+02  0.74230E+00  0.45132E+01  0.12508E+02      982.00
  0.56114E+00  0.59538E+02    0.30000E+00  0.30000E+00 -0.60000E+00  0.00000E+00  0.00000E+00  0.00000E+00    0.19087E+02  0.17468E+02 -0.36555E+02  0.76544E+00  0.45480E+01  0.12548E+02      982.00
  0.58416E+00  0.59650E+02    0.31250E+00  0.31250E+00 -0.62500E+00  0.00000E+00  0.00000E+00  0.00000E+00    0.19147E+02  0.17468E+02 -0.36614E+02  0.78635E+00  0.45831E+01  0.12581E+02      982.00
  0.60718E+00  0.59751E+02    0.32500E+00  0.32500E+00 -0.65000E+00  0.00000E+00  0.00000E+00  0.00000E+00    0.19204E+02  0.17463E+02 -0.36667E+02  0.80557E+00  0.46189E+01  0.12607E+02      982.00
  0.63019E+00  0.59839E+02    0.33750E+00  0.33750E+00 -0.67500E+00  0.00000E+00  0.00000E+00  0.00000E+00    0.19260E+02  0.17455E+02 -0.36714E+02  0.82355E+00  0.46557E+01  0.12627E+02      982.00
  0.65320E+00  0.59904E+02    0.35000E+00  0.35000E+00 -0.70000E+00  0.00000E+00  0.00000E+00  0.00000E+00    0.19306E+02  0.17444E+02 -0.36749E+02  0.83816E+00  0.46882E+01  0.12638E+02      982.00
  0.67620E+00  0.59983E+02    0.36250E+00  0.36250E+00 -0.72500E+00  0.00000E+00  0.00000E+00  0.00000E+00    0.19364E+02  0.17428E+02 -0.36792E+02  0.85720E+00  0.47328E+01  0.12649E+02      982.00
  0.69921E+00  0.60033E+02    0.37500E+00  0.37500E+00 -0.75000E+00  0.00000E+00  0.00000E+00  0.00000E+00    0.19408E+02  0.17412E+02 -0.36820E+02  0.87151E+00  0.47691E+01  0.12652E+02      982.00
  0.72221E+00  0.60084E+02    0.38750E+00  0.38750E+00 -0.77500E+00  0.00000E+00  0.00000E+00  0.00000E+00    0.19453E+02  0.17397E+02 -0.36850E+02  0.89247E+00  0.48112E+01  0.12646E+02      982.00
  0.74521E+00  0.60122E+02    0.40000E+00  0.40000E+00 -0.80000E+00  0.00000E+00  0.00000E+00  0.00000E+00    0.19498E+02  0.17373E+02 -0.36871E+02  0.91056E+00  0.48566E+01  0.12638E+02      982.00
  0.76820E+00  0.60150E+02    0.41250E+00  0.41250E+00 -0.82500E+00  0.00000E+00  0.00000E+00  0.00000E+00    0.19541E+02  0.17346E+02 -0.36888E+02  0.92907E+00  0.49049E+01  0.12624E+02      982.00
  0.79120E+00  0.60170E+02    0.42500E+00  0.42500E+00 -0.85000E+00  0.00000E+00  0.00000E+00  0.00000E+00    0.19583E+02  0.17317E+02 -0.36900E+02  0.94843E+00  0.49561E+01  0.12604E+02      982.00
  0.81420E+00  0.60165E+02    0.43750E+00  0.43750E+00 -0.87500E+00  0.00000E+00  0.00000E+00  0.00000E+00    0.19614E+02  0.17288E+02 -0.36901E+02  0.97239E+00  0.50049E+01  0.12569E+02      982.00
  0.83720E+00  0.60165E+02    0.45000E+00  0.45000E+00 -0.90000E+00  0.00000E+00  0.00000E+00  0.00000E+00    0.19650E+02  0.17253E+02 -0.36903E+02  0.99457E+00  0.50622E+01  0.12537E+02      982.00
  0.86020E+00  0.60115E+02    0.46250E+00  0.46250E+00 -0.92500E+00  0.00000E+00  0.00000E+00  0.00000E+00    0.19668E+02  0.17213E+02 -0.36882E+02  0.10049E+01  0.50977E+01  0.12486E+02      982.00
  0.88321E+00  0.60026E+02    0.47500E+00  0.47500E+00 -0.95000E+00  0.00000E+00  0.00000E+00  0.00000E+00    0.19674E+02  0.17168E+02 -0.36842E+02  0.10292E+01  0.51386E+01  0.12408E+02      982.00
  0.90622E+00  0.59949E+02    0.48750E+00  0.48750E+00 -0.97500E+00  0.00000E+00  0.00000E+00  0.00000E+00    0.19685E+02  0.17123E+02 -0.36808E+02  0.10510E+01  0.51882E+01  0.12337E+02      982.00
  0.92925E+00  0.59865E+02    0.50000E+00  0.50000E+00 -0.10000E+01  0.00000E+00  0.00000E+00  0.00000E+00    0.19694E+02  0.17075E+02 -0.36769E+02  0.10757E+01  0.52445E+01  0.12258E+02      982.00
