          Evm          Svm            E11          E22          E33          E23          E13          E12         SDEV11       SDEV22       SDEV33       SDEV23       SDEV13       SDEV12      TEMP
  0.00000E+00  0.60029E+02    0.00000E+00  0.00000E+00  0.00000E+00  0.00000E+00  0.00000E+00  0.00000E+00    0.15952E+02  0.22384E+02 -0.38336E+02 -0.56043E+01  0.32132E+01  0.68412E+01      982.00
  0.23949E-01  0.60275E+02    0.12500E-01  0.12500E-01 -0.25000E-01  0.00000E+00  0.00000E+00  0.00000E+00    0.16777E+02  0.21669E+02 -0.38447E+02 -0.55786E+01  0.35104E+01  0.72796E+01      982.00
  0.47868E-01  0.60576E+02    0.25000E-01  0.25000E-01 -0.50000E-01  0.00000E+00  0.00000E+00  0.00000E+00    0.17639E+02  0.20928E+02 -0.38567E+02 -0.55162E+01  0.38143E+01  0.77394E+01      982.00
  0.71744E-01  0.60847E+02    0.37500E-01  0.37500E-01 -0.75000E-01  0.00000E+00  0.00000E+00  0.00000E+00    0.18424E+02  0.20234E+02 -0.38658E+02 -0.54093E+01  0.40600E+01  0.81689E+01      982.00
  0.95569E-01  0.61072E+02    0.50000E-01  0.50000E-01 -0.10000E+00  0.00000E+00  0.00000E+00  0.00000E+00    0.19051E+02  0.19674E+02 -0.38726E+02 -0.52641E+01  0.41824E+01  0.85555E+01      982.00
  0.11935E+00  0.61265E+02    0.62500E-01  0.62500E-01 -0.12500E+00  0.00000E+00  0.00000E+00  0.00000E+00    0.19521E+02  0.19260E+02 -0.38782E+02 -0.50901E+01  0.41861E+01  0.89262E+01      982.00
  0.14309E+00  0.61447E+02    0.75000E-01  0.75000E-01 -0.15000E+00  0.00000E+00  0.00000E+00  0.00000E+00    0.19873E+02  0.18960E+02 -0.38832E+02 -0.48942E+01  0.41072E+01  0.93045E+01      982.00
  0.16678E+00  0.61625E+02    0.87500E-01  0.87500E-01 -0.17500E+00  0.00000E+00  0.00000E+00  0.00000E+00    0.20126E+02  0.18754E+02 -0.38880E+02 -0.46864E+01  0.39674E+01  0.96945E+01      982.00
  0.19044E+00  0.61811E+02    0.10000E+00  0.10000E+00 -0.20000E+00  0.00000E+00  0.00000E+00  0.00000E+00    0.20316E+02  0.18610E+02 -0.38926E+02 -0.44690E+01  0.37935E+01  0.10098E+02      982.00
  0.21406E+00  0.62008E+02    0.11250E+00  0.11250E+00 -0.22500E+00  0.00000E+00  0.00000E+00  0.00000E+00    0.20468E+02  0.18506E+02 -0.38974E+02 -0.42410E+01  0.36005E+01  0.10513E+02      982.00
  0.23763E+00  0.62218E+02    0.12500E+00  0.12500E+00 -0.25000E+00  0.00000E+00  0.00000E+00  0.00000E+00    0.20592E+02  0.18429E+02 -0.39022E+02 -0.40070E+01  0.33953E+01  0.10935E+02      982.00
  0.26115E+00  0.62437E+02    0.13750E+00  0.13750E+00 -0.27500E+00  0.00000E+00  0.00000E+00  0.00000E+00    0.20696E+02  0.18372E+02 -0.39068E+02 -0.37759E+01  0.31846E+01  0.11356E+02      982.00
  0.28461E+00  0.62665E+02    0.15000E+00  0.15000E+00 -0.30000E+00  0.00000E+00  0.00000E+00  0.00000E+00    0.20796E+02  0.18319E+02 -0.39115E+02 -0.35395E+01  0.29715E+01  0.11772E+02      982.00
  0.30802E+00  0.62898E+02    0.16250E+00  0.16250E+00 -0.32500E+00  0.00000E+00  0.00000E+00  0.00000E+00    0.20895E+02  0.18266E+02 -0.39161E+02 -0.32979E+01  0.27569E+01  0.12178E+02      982.00
  0.33137E+00  0.63133E+02    0.17500E+00  0.17500E+00 -0.35000E+00  0.00000E+00  0.00000E+00  0.00000E+00    0.20997E+02  0.18210E+02 -0.39207E+02 -0.30522E+01  0.25416E+01  0.12569E+02      982.00
  0.35466E+00  0.63369E+02    0.18750E+00  0.18750E+00 -0.37500E+00  0.00000E+00  0.00000E+00  0.00000E+00    0.21102E+02  0.18151E+02 -0.39253E+02 -0.28048E+01  0.23275E+01  0.12941E+02      982.00
  0.37789E+00  0.63602E+02    0.20000E+00  0.20000E+00 -0.40000E+00  0.00000E+00  0.00000E+00  0.00000E+00    0.21208E+02  0.18090E+02 -0.39299E+02 -0.25607E+01  0.21178E+01  0.13291E+02      982.00
  0.40106E+00  0.63832E+02    0.21250E+00  0.21250E+00 -0.42500E+00  0.00000E+00  0.00000E+00  0.00000E+00    0.21310E+02  0.18033E+02 -0.39343E+02 -0.23302E+01  0.19191E+01  0.13618E+02      982.00
  0.42417E+00  0.64054E+02    0.22500E+00  0.22500E+00 -0.45000E+00  0.00000E+00  0.00000E+00  0.00000E+00    0.21415E+02  0.17974E+02 -0.39389E+02 -0.21037E+01  0.17305E+01  0.13916E+02      982.00
  0.44723E+00  0.64276E+02    0.23750E+00  0.23750E+00 -0.47500E+00  0.00000E+00  0.00000E+00  0.00000E+00    0.21505E+02  0.17929E+02 -0.39434E+02 -0.19100E+01  0.15646E+01  0.14197E+02      982.00
  0.47024E+00  0.64489E+02    0.25000E+00  0.25000E+00 -0.50000E+00  0.00000E+00  0.00000E+00  0.00000E+00    0.21592E+02  0.17887E+02 -0.39479E+02 -0.17319E+01  0.14155E+01  0.14453E+02      982.00
  0.49319E+00  0.64699E+02    0.26250E+00  0.26250E+00 -0.52500E+00  0.00000E+00  0.00000E+00  0.00000E+00    0.21662E+02  0.17860E+02 -0.39523E+02 -0.15952E+01  0.12962E+01  0.14696E+02      982.00
  0.51610E+00  0.64902E+02    0.27500E+00  0.27500E+00 -0.55000E+00  0.00000E+00  0.00000E+00  0.00000E+00    0.21729E+02  0.17836E+02 -0.39564E+02 -0.14729E+01  0.11916E+01  0.14923E+02      982.00
  0.53896E+00  0.65087E+02    0.28750E+00  0.28750E+00 -0.57500E+00  0.00000E+00  0.00000E+00  0.00000E+00    0.21778E+02  0.17825E+02 -0.39602E+02 -0.13967E+01  0.11215E+01  0.15124E+02      982.00
  0.56178E+00  0.65280E+02    0.30000E+00  0.30000E+00 -0.60000E+00  0.00000E+00  0.00000E+00  0.00000E+00    0.21829E+02  0.17811E+02 -0.39641E+02 -0.13236E+01  0.10558E+01  0.15331E+02      982.00
  0.58455E+00  0.65455E+02    0.31250E+00  0.31250E+00 -0.62500E+00  0.00000E+00  0.00000E+00  0.00000E+00    0.21869E+02  0.17804E+02 -0.39674E+02 -0.12839E+01  0.10151E+01  0.15519E+02      982.00
  0.60728E+00  0.65641E+02    0.32500E+00  0.32500E+00 -0.65000E+00  0.00000E+00  0.00000E+00  0.00000E+00    0.21912E+02  0.17795E+02 -0.39707E+02 -0.12515E+01  0.98081E+00  0.15716E+02      982.00
  0.62996E+00  0.65779E+02    0.33750E+00  0.33750E+00 -0.67500E+00  0.00000E+00  0.00000E+00  0.00000E+00    0.21941E+02  0.17791E+02 -0.39732E+02 -0.12429E+01  0.96672E+00  0.15860E+02      982.00
  0.65261E+00  0.65928E+02    0.35000E+00  0.35000E+00 -0.70000E+00  0.00000E+00  0.00000E+00  0.00000E+00    0.21973E+02  0.17783E+02 -0.39756E+02 -0.12456E+01  0.95939E+00  0.16018E+02      982.00
  0.67523E+00  0.66066E+02    0.36250E+00  0.36250E+00 -0.72500E+00  0.00000E+00  0.00000E+00  0.00000E+00    0.22003E+02  0.17773E+02 -0.39776E+02 -0.12554E+01  0.95835E+00  0.16166E+02      982.00
  0.69781E+00  0.66235E+02    0.37500E+00  0.37500E+00 -0.75000E+00  0.00000E+00  0.00000E+00  0.00000E+00    0.22042E+02  0.17757E+02 -0.39799E+02 -0.12750E+01  0.96413E+00  0.16348E+02      982.00
  0.72034E+00  0.66352E+02    0.38750E+00  0.38750E+00 -0.77500E+00  0.00000E+00  0.00000E+00  0.00000E+00    0.22070E+02  0.17741E+02 -0.39811E+02 -0.12955E+01  0.97168E+00  0.16479E+02      982.00
  0.74284E+00  0.66462E+02    0.40000E+00  0.40000E+00 -0.80000E+00  0.00000E+00  0.00000E+00  0.00000E+00    0.22098E+02  0.17725E+02 -0.39822E+02 -0.13226E+01  0.98492E+00  0.16600E+02      982.00
  0.76531E+00  0.66533E+02    0.41250E+00  0.41250E+00 -0.82500E+00  0.00000E+00  0.00000E+00  0.00000E+00    0.22117E+02  0.17714E+02 -0.39831E+02 -0.13431E+01  0.99497E+00  0.16674E+02      982.00
  0.78776E+00  0.66630E+02    0.42500E+00  0.42500E+00 -0.85000E+00  0.00000E+00  0.00000E+00  0.00000E+00    0.22143E+02  0.17695E+02 -0.39839E+02 -0.13717E+01  0.10102E+01  0.16783E+02      982.00
  0.81018E+00  0.66719E+02    0.43750E+00  0.43750E+00 -0.87500E+00  0.00000E+00  0.00000E+00  0.00000E+00    0.22169E+02  0.17675E+02 -0.39844E+02 -0.14020E+01  0.10271E+01  0.16884E+02      982.00
  0.83257E+00  0.66803E+02    0.45000E+00  0.45000E+00 -0.90000E+00  0.00000E+00  0.00000E+00  0.00000E+00    0.22195E+02  0.17653E+02 -0.39849E+02 -0.14330E+01  0.10447E+01  0.16980E+02      982.00
  0.85494E+00  0.66880E+02    0.46250E+00  0.46250E+00 -0.92500E+00  0.00000E+00  0.00000E+00  0.00000E+00    0.22221E+02  0.17631E+02 -0.39851E+02 -0.14642E+01  0.10626E+01  0.17069E+02      982.00
  0.87729E+00  0.66952E+02    0.47500E+00  0.47500E+00 -0.95000E+00  0.00000E+00  0.00000E+00  0.00000E+00    0.22246E+02  0.17608E+02 -0.39853E+02 -0.14952E+01  0.10807E+01  0.17152E+02      982.00
  0.89961E+00  0.67018E+02    0.48750E+00  0.48750E+00 -0.97500E+00  0.00000E+00  0.00000E+00  0.00000E+00    0.22270E+02  0.17584E+02 -0.39854E+02 -0.15258E+01  0.10986E+01  0.17229E+02      982.00
  0.92191E+00  0.67080E+02    0.50000E+00  0.50000E+00 -0.10000E+01  0.00000E+00  0.00000E+00  0.00000E+00    0.22295E+02  0.17559E+02 -0.39854E+02 -0.15557E+01  0.11161E+01  0.17302E+02      982.00
