          Evm          Svm            E11          E22          E33          E23          E13          E12         SDEV11       SDEV22       SDEV33       SDEV23       SDEV13       SDEV12      TEMP
  0.00000E+00  0.66203E+02    0.00000E+00  0.00000E+00  0.00000E+00  0.00000E+00  0.00000E+00  0.00000E+00    0.23936E+02  0.19586E+02 -0.43521E+02 -0.40706E+01  0.23046E+01 -0.37100E+01      982.00
  0.24652E-01  0.66131E+02    0.12500E-01  0.12500E-01 -0.25000E-01  0.00000E+00  0.00000E+00  0.00000E+00    0.24376E+02  0.19072E+02 -0.43448E+02 -0.39679E+01  0.24161E+01 -0.36536E+01      982.00
  0.49290E-01  0.66139E+02    0.25000E-01  0.25000E-01 -0.50000E-01  0.00000E+00  0.00000E+00  0.00000E+00    0.24842E+02  0.18584E+02 -0.43426E+02 -0.38707E+01  0.25030E+01 -0.35654E+01      982.00
  0.73912E-01  0.66245E+02    0.37500E-01  0.37500E-01 -0.75000E-01  0.00000E+00  0.00000E+00  0.00000E+00    0.25373E+02  0.18094E+02 -0.43467E+02 -0.37399E+01  0.25735E+01 -0.34511E+01      982.00
  0.98518E-01  0.66429E+02    0.50000E-01  0.50000E-01 -0.10000E+00  0.00000E+00  0.00000E+00  0.00000E+00    0.25942E+02  0.17616E+02 -0.43557E+02 -0.35834E+01  0.26170E+01 -0.33140E+01      982.00
  0.12311E+00  0.66681E+02    0.62500E-01  0.62500E-01 -0.12500E+00  0.00000E+00  0.00000E+00  0.00000E+00    0.26531E+02  0.17160E+02 -0.43691E+02 -0.34041E+01  0.26258E+01 -0.31593E+01      982.00
  0.14768E+00  0.67018E+02    0.75000E-01  0.75000E-01 -0.15000E+00  0.00000E+00  0.00000E+00  0.00000E+00    0.27138E+02  0.16743E+02 -0.43881E+02 -0.32089E+01  0.25996E+01 -0.29894E+01      982.00
  0.17223E+00  0.67416E+02    0.87500E-01  0.87500E-01 -0.17500E+00  0.00000E+00  0.00000E+00  0.00000E+00    0.27740E+02  0.16370E+02 -0.44110E+02 -0.30054E+01  0.25536E+01 -0.28006E+01      982.00
  0.19677E+00  0.67827E+02    0.10000E+00  0.10000E+00 -0.20000E+00  0.00000E+00  0.00000E+00  0.00000E+00    0.28271E+02  0.16081E+02 -0.44352E+02 -0.28226E+01  0.25272E+01 -0.25798E+01      982.00
  0.22129E+00  0.68088E+02    0.11250E+00  0.11250E+00 -0.22500E+00  0.00000E+00  0.00000E+00  0.00000E+00    0.28609E+02  0.15908E+02 -0.44516E+02 -0.26645E+01  0.25141E+01 -0.23011E+01      982.00
  0.24581E+00  0.68199E+02    0.12500E+00  0.12500E+00 -0.25000E+00  0.00000E+00  0.00000E+00  0.00000E+00    0.28785E+02  0.15823E+02 -0.44608E+02 -0.25047E+01  0.24051E+01 -0.19873E+01      982.00
  0.27033E+00  0.68294E+02    0.13750E+00  0.13750E+00 -0.27500E+00  0.00000E+00  0.00000E+00  0.00000E+00    0.28930E+02  0.15767E+02 -0.44697E+02 -0.23374E+01  0.21707E+01 -0.16880E+01      982.00
  0.29488E+00  0.68415E+02    0.15000E+00  0.15000E+00 -0.30000E+00  0.00000E+00  0.00000E+00  0.00000E+00    0.29077E+02  0.15723E+02 -0.44800E+02 -0.21869E+01  0.18662E+01 -0.14298E+01      982.00
  0.31943E+00  0.68566E+02    0.16250E+00  0.16250E+00 -0.32500E+00  0.00000E+00  0.00000E+00  0.00000E+00    0.29239E+02  0.15677E+02 -0.44915E+02 -0.20570E+01  0.15495E+01 -0.12057E+01      982.00
  0.34400E+00  0.68749E+02    0.17500E+00  0.17500E+00 -0.35000E+00  0.00000E+00  0.00000E+00  0.00000E+00    0.29399E+02  0.15644E+02 -0.45043E+02 -0.19619E+01  0.12630E+01 -0.10337E+01      982.00
  0.36857E+00  0.68943E+02    0.18750E+00  0.18750E+00 -0.37500E+00  0.00000E+00  0.00000E+00  0.00000E+00    0.29565E+02  0.15606E+02 -0.45170E+02 -0.18896E+01  0.10220E+01 -0.89370E+00      982.00
  0.39314E+00  0.69149E+02    0.20000E+00  0.20000E+00 -0.40000E+00  0.00000E+00  0.00000E+00  0.00000E+00    0.29726E+02  0.15575E+02 -0.45300E+02 -0.18435E+01  0.82918E+00 -0.79576E+00      982.00
  0.41770E+00  0.69346E+02    0.21250E+00  0.21250E+00 -0.42500E+00  0.00000E+00  0.00000E+00  0.00000E+00    0.29884E+02  0.15536E+02 -0.45420E+02 -0.18110E+01  0.68251E+00 -0.71821E+00      982.00
  0.44226E+00  0.69566E+02    0.22500E+00  0.22500E+00 -0.45000E+00  0.00000E+00  0.00000E+00  0.00000E+00    0.30058E+02  0.15493E+02 -0.45550E+02 -0.17888E+01  0.56680E+00 -0.66957E+00      982.00
  0.46682E+00  0.69748E+02    0.23750E+00  0.23750E+00 -0.47500E+00  0.00000E+00  0.00000E+00  0.00000E+00    0.30190E+02  0.15470E+02 -0.45660E+02 -0.17864E+01  0.49761E+00 -0.63296E+00      982.00
  0.49137E+00  0.69948E+02    0.25000E+00  0.25000E+00 -0.50000E+00  0.00000E+00  0.00000E+00  0.00000E+00    0.30348E+02  0.15426E+02 -0.45774E+02 -0.17863E+01  0.44109E+00 -0.61333E+00      982.00
  0.51591E+00  0.70138E+02    0.26250E+00  0.26250E+00 -0.52500E+00  0.00000E+00  0.00000E+00  0.00000E+00    0.30483E+02  0.15404E+02 -0.45886E+02 -0.17997E+01  0.41382E+00 -0.59737E+00      982.00
  0.54044E+00  0.70314E+02    0.27500E+00  0.27500E+00 -0.55000E+00  0.00000E+00  0.00000E+00  0.00000E+00    0.30608E+02  0.15381E+02 -0.45989E+02 -0.18179E+01  0.40166E+00 -0.58554E+00      982.00
  0.56497E+00  0.70457E+02    0.28750E+00  0.28750E+00 -0.57500E+00  0.00000E+00  0.00000E+00  0.00000E+00    0.30718E+02  0.15352E+02 -0.46070E+02 -0.18353E+01  0.40195E+00 -0.57774E+00      982.00
  0.58949E+00  0.70649E+02    0.30000E+00  0.30000E+00 -0.60000E+00  0.00000E+00  0.00000E+00  0.00000E+00    0.30864E+02  0.15315E+02 -0.46179E+02 -0.18661E+01  0.41150E+00 -0.56810E+00      982.00
  0.61400E+00  0.70789E+02    0.31250E+00  0.31250E+00 -0.62500E+00  0.00000E+00  0.00000E+00  0.00000E+00    0.30959E+02  0.15301E+02 -0.46260E+02 -0.18911E+01  0.42942E+00 -0.55688E+00      982.00
  0.63851E+00  0.70908E+02    0.32500E+00  0.32500E+00 -0.65000E+00  0.00000E+00  0.00000E+00  0.00000E+00    0.31045E+02  0.15282E+02 -0.46327E+02 -0.19180E+01  0.45174E+00 -0.54490E+00      982.00
  0.66301E+00  0.71029E+02    0.33750E+00  0.33750E+00 -0.67500E+00  0.00000E+00  0.00000E+00  0.00000E+00    0.31127E+02  0.15270E+02 -0.46397E+02 -0.19454E+01  0.47719E+00 -0.53191E+00      982.00
  0.68750E+00  0.71128E+02    0.35000E+00  0.35000E+00 -0.70000E+00  0.00000E+00  0.00000E+00  0.00000E+00    0.31199E+02  0.15254E+02 -0.46453E+02 -0.19751E+01  0.50651E+00 -0.51846E+00      982.00
  0.71199E+00  0.71225E+02    0.36250E+00  0.36250E+00 -0.72500E+00  0.00000E+00  0.00000E+00  0.00000E+00    0.31268E+02  0.15240E+02 -0.46508E+02 -0.20027E+01  0.53583E+00 -0.50302E+00      982.00
  0.73648E+00  0.71318E+02    0.37500E+00  0.37500E+00 -0.75000E+00  0.00000E+00  0.00000E+00  0.00000E+00    0.31333E+02  0.15227E+02 -0.46560E+02 -0.20296E+01  0.56654E+00 -0.48627E+00      982.00
  0.76096E+00  0.71397E+02    0.38750E+00  0.38750E+00 -0.77500E+00  0.00000E+00  0.00000E+00  0.00000E+00    0.31392E+02  0.15212E+02 -0.46604E+02 -0.20558E+01  0.59773E+00 -0.46776E+00      982.00
  0.78544E+00  0.71464E+02    0.40000E+00  0.40000E+00 -0.80000E+00  0.00000E+00  0.00000E+00  0.00000E+00    0.31441E+02  0.15200E+02 -0.46641E+02 -0.20680E+01  0.61553E+00 -0.46403E+00      982.00
  0.80991E+00  0.71533E+02    0.41250E+00  0.41250E+00 -0.82500E+00  0.00000E+00  0.00000E+00  0.00000E+00    0.31492E+02  0.15187E+02 -0.46679E+02 -0.20927E+01  0.64693E+00 -0.44396E+00      982.00
  0.83438E+00  0.71604E+02    0.42500E+00  0.42500E+00 -0.85000E+00  0.00000E+00  0.00000E+00  0.00000E+00    0.31545E+02  0.15173E+02 -0.46718E+02 -0.21173E+01  0.67890E+00 -0.42205E+00      982.00
  0.85885E+00  0.71661E+02    0.43750E+00  0.43750E+00 -0.87500E+00  0.00000E+00  0.00000E+00  0.00000E+00    0.31588E+02  0.15160E+02 -0.46748E+02 -0.21414E+01  0.71080E+00 -0.39829E+00      982.00
  0.88331E+00  0.71717E+02    0.45000E+00  0.45000E+00 -0.90000E+00  0.00000E+00  0.00000E+00  0.00000E+00    0.31630E+02  0.15148E+02 -0.46778E+02 -0.21650E+01  0.74271E+00 -0.37291E+00      982.00
  0.90777E+00  0.71714E+02    0.46250E+00  0.46250E+00 -0.92500E+00  0.00000E+00  0.00000E+00  0.00000E+00    0.31647E+02  0.15123E+02 -0.46770E+02 -0.21867E+01  0.77091E+00 -0.31902E+00      982.00
  0.93223E+00  0.71704E+02    0.47500E+00  0.47500E+00 -0.95000E+00  0.00000E+00  0.00000E+00  0.00000E+00    0.31657E+02  0.15101E+02 -0.46758E+02 -0.21936E+01  0.78386E+00 -0.30508E+00      982.00
  0.95668E+00  0.71699E+02    0.48750E+00  0.48750E+00 -0.97500E+00  0.00000E+00  0.00000E+00  0.00000E+00    0.31663E+02  0.15090E+02 -0.46752E+02 -0.22062E+01  0.80544E+00 -0.27134E+00      982.00
  0.98114E+00  0.71686E+02    0.50000E+00  0.50000E+00 -0.10000E+01  0.00000E+00  0.00000E+00  0.00000E+00    0.31667E+02  0.15073E+02 -0.46740E+02 -0.22194E+01  0.82722E+00 -0.23569E+00      982.00
