          Evm          Svm            E11          E22          E33          E23          E13          E12         SDEV11       SDEV22       SDEV33       SDEV23       SDEV13       SDEV12      TEMP
  0.00000E+00  0.57242E+02    0.00000E+00  0.00000E+00  0.00000E+00  0.00000E+00  0.00000E+00  0.00000E+00    0.15595E+02  0.19641E+02 -0.35237E+02 -0.65484E+01 -0.66778E+01 -0.83321E+01      982.00
  0.23084E-01  0.57449E+02    0.12500E-01  0.12500E-01 -0.25000E-01  0.00000E+00  0.00000E+00  0.00000E+00    0.15770E+02  0.19671E+02 -0.35441E+02 -0.63770E+01 -0.67304E+01 -0.82642E+01      982.00
  0.46219E-01  0.57685E+02    0.25000E-01  0.25000E-01 -0.50000E-01  0.00000E+00  0.00000E+00  0.00000E+00    0.15902E+02  0.19757E+02 -0.35659E+02 -0.62330E+01 -0.67511E+01 -0.82080E+01      982.00
  0.69400E-01  0.57923E+02    0.37500E-01  0.37500E-01 -0.75000E-01  0.00000E+00  0.00000E+00  0.00000E+00    0.16009E+02  0.19860E+02 -0.35869E+02 -0.61134E+01 -0.67520E+01 -0.81703E+01      982.00
  0.92622E-01  0.58172E+02    0.50000E-01  0.50000E-01 -0.10000E+00  0.00000E+00  0.00000E+00  0.00000E+00    0.16117E+02  0.19967E+02 -0.36084E+02 -0.60013E+01 -0.67364E+01 -0.81442E+01      982.00
  0.11588E+00  0.58458E+02    0.62500E-01  0.62500E-01 -0.12500E+00  0.00000E+00  0.00000E+00  0.00000E+00    0.16223E+02  0.20094E+02 -0.36317E+02 -0.59129E+01 -0.67058E+01 -0.81402E+01      982.00
  0.13918E+00  0.58748E+02    0.75000E-01  0.75000E-01 -0.15000E+00  0.00000E+00  0.00000E+00  0.00000E+00    0.16330E+02  0.20219E+02 -0.36549E+02 -0.58322E+01 -0.66643E+01 -0.81481E+01      982.00
  0.16251E+00  0.59068E+02    0.87500E-01  0.87500E-01 -0.17500E+00  0.00000E+00  0.00000E+00  0.00000E+00    0.16448E+02  0.20346E+02 -0.36795E+02 -0.57637E+01 -0.66172E+01 -0.81736E+01      982.00
  0.18587E+00  0.59405E+02    0.10000E+00  0.10000E+00 -0.20000E+00  0.00000E+00  0.00000E+00  0.00000E+00    0.16582E+02  0.20469E+02 -0.37051E+02 -0.57002E+01 -0.65657E+01 -0.82082E+01      982.00
  0.20926E+00  0.59774E+02    0.11250E+00  0.11250E+00 -0.22500E+00  0.00000E+00  0.00000E+00  0.00000E+00    0.16736E+02  0.20588E+02 -0.37324E+02 -0.56439E+01 -0.65147E+01 -0.82558E+01      982.00
  0.23267E+00  0.60163E+02    0.12500E+00  0.12500E+00 -0.25000E+00  0.00000E+00  0.00000E+00  0.00000E+00    0.16907E+02  0.20702E+02 -0.37609E+02 -0.55937E+01 -0.64639E+01 -0.83070E+01      982.00
  0.25612E+00  0.60556E+02    0.13750E+00  0.13750E+00 -0.27500E+00  0.00000E+00  0.00000E+00  0.00000E+00    0.17087E+02  0.20808E+02 -0.37896E+02 -0.55509E+01 -0.64123E+01 -0.83600E+01      982.00
  0.27958E+00  0.60962E+02    0.15000E+00  0.15000E+00 -0.30000E+00  0.00000E+00  0.00000E+00  0.00000E+00    0.17290E+02  0.20900E+02 -0.38190E+02 -0.55102E+01 -0.63629E+01 -0.84145E+01      982.00
  0.30308E+00  0.61376E+02    0.16250E+00  0.16250E+00 -0.32500E+00  0.00000E+00  0.00000E+00  0.00000E+00    0.17505E+02  0.20985E+02 -0.38490E+02 -0.54748E+01 -0.63136E+01 -0.84694E+01      982.00
  0.32659E+00  0.61781E+02    0.17500E+00  0.17500E+00 -0.35000E+00  0.00000E+00  0.00000E+00  0.00000E+00    0.17735E+02  0.21048E+02 -0.38783E+02 -0.54423E+01 -0.62653E+01 -0.85182E+01      982.00
  0.35013E+00  0.62190E+02    0.18750E+00  0.18750E+00 -0.37500E+00  0.00000E+00  0.00000E+00  0.00000E+00    0.17975E+02  0.21104E+02 -0.39079E+02 -0.54166E+01 -0.62170E+01 -0.85663E+01      982.00
  0.37370E+00  0.62578E+02    0.20000E+00  0.20000E+00 -0.40000E+00  0.00000E+00  0.00000E+00  0.00000E+00    0.18228E+02  0.21135E+02 -0.39363E+02 -0.53906E+01 -0.61702E+01 -0.86035E+01      982.00
  0.39729E+00  0.62957E+02    0.21250E+00  0.21250E+00 -0.42500E+00  0.00000E+00  0.00000E+00  0.00000E+00    0.18492E+02  0.21149E+02 -0.39641E+02 -0.53679E+01 -0.61239E+01 -0.86339E+01      982.00
  0.42090E+00  0.63322E+02    0.22500E+00  0.22500E+00 -0.45000E+00  0.00000E+00  0.00000E+00  0.00000E+00    0.18763E+02  0.21147E+02 -0.39911E+02 -0.53480E+01 -0.60787E+01 -0.86557E+01      982.00
  0.44453E+00  0.63673E+02    0.23750E+00  0.23750E+00 -0.47500E+00  0.00000E+00  0.00000E+00  0.00000E+00    0.19040E+02  0.21133E+02 -0.40173E+02 -0.53306E+01 -0.60313E+01 -0.86693E+01      982.00
  0.46819E+00  0.64006E+02    0.25000E+00  0.25000E+00 -0.50000E+00  0.00000E+00  0.00000E+00  0.00000E+00    0.19321E+02  0.21102E+02 -0.40423E+02 -0.53146E+01 -0.59849E+01 -0.86729E+01      982.00
  0.49188E+00  0.64310E+02    0.26250E+00  0.26250E+00 -0.52500E+00  0.00000E+00  0.00000E+00  0.00000E+00    0.19598E+02  0.21055E+02 -0.40653E+02 -0.53020E+01 -0.59374E+01 -0.86712E+01      982.00
  0.51558E+00  0.64603E+02    0.27500E+00  0.27500E+00 -0.55000E+00  0.00000E+00  0.00000E+00  0.00000E+00    0.19878E+02  0.20999E+02 -0.40877E+02 -0.52898E+01 -0.58886E+01 -0.86598E+01      982.00
  0.53931E+00  0.64891E+02    0.28750E+00  0.28750E+00 -0.57500E+00  0.00000E+00  0.00000E+00  0.00000E+00    0.20163E+02  0.20936E+02 -0.41098E+02 -0.52793E+01 -0.58409E+01 -0.86411E+01      982.00
  0.56306E+00  0.65149E+02    0.30000E+00  0.30000E+00 -0.60000E+00  0.00000E+00  0.00000E+00  0.00000E+00    0.20438E+02  0.20863E+02 -0.41301E+02 -0.52671E+01 -0.57879E+01 -0.86144E+01      982.00
  0.58683E+00  0.65384E+02    0.31250E+00  0.31250E+00 -0.62500E+00  0.00000E+00  0.00000E+00  0.00000E+00    0.20715E+02  0.20771E+02 -0.41486E+02 -0.52546E+01 -0.57429E+01 -0.85814E+01      982.00
  0.61063E+00  0.65611E+02    0.32500E+00  0.32500E+00 -0.65000E+00  0.00000E+00  0.00000E+00  0.00000E+00    0.20985E+02  0.20681E+02 -0.41666E+02 -0.52466E+01 -0.56921E+01 -0.85418E+01      982.00
  0.63444E+00  0.65825E+02    0.33750E+00  0.33750E+00 -0.67500E+00  0.00000E+00  0.00000E+00  0.00000E+00    0.21250E+02  0.20586E+02 -0.41836E+02 -0.52402E+01 -0.56404E+01 -0.84979E+01      982.00
  0.65827E+00  0.66018E+02    0.35000E+00  0.35000E+00 -0.70000E+00  0.00000E+00  0.00000E+00  0.00000E+00    0.21508E+02  0.20484E+02 -0.41992E+02 -0.52353E+01 -0.55885E+01 -0.84489E+01      982.00
  0.68213E+00  0.66196E+02    0.36250E+00  0.36250E+00 -0.72500E+00  0.00000E+00  0.00000E+00  0.00000E+00    0.21769E+02  0.20369E+02 -0.42138E+02 -0.52261E+01 -0.55428E+01 -0.83920E+01      982.00
  0.70600E+00  0.66365E+02    0.37500E+00  0.37500E+00 -0.75000E+00  0.00000E+00  0.00000E+00  0.00000E+00    0.22017E+02  0.20260E+02 -0.42277E+02 -0.52206E+01 -0.54906E+01 -0.83336E+01      982.00
  0.72989E+00  0.66524E+02    0.38750E+00  0.38750E+00 -0.77500E+00  0.00000E+00  0.00000E+00  0.00000E+00    0.22260E+02  0.20149E+02 -0.42408E+02 -0.52156E+01 -0.54377E+01 -0.82705E+01      982.00
  0.75379E+00  0.66672E+02    0.40000E+00  0.40000E+00 -0.80000E+00  0.00000E+00  0.00000E+00  0.00000E+00    0.22496E+02  0.20036E+02 -0.42532E+02 -0.52118E+01 -0.53847E+01 -0.82049E+01      982.00
  0.77771E+00  0.66803E+02    0.41250E+00  0.41250E+00 -0.82500E+00  0.00000E+00  0.00000E+00  0.00000E+00    0.22738E+02  0.19907E+02 -0.42645E+02 -0.52046E+01 -0.53347E+01 -0.81270E+01      982.00
  0.80165E+00  0.66934E+02    0.42500E+00  0.42500E+00 -0.85000E+00  0.00000E+00  0.00000E+00  0.00000E+00    0.22963E+02  0.19792E+02 -0.42756E+02 -0.52025E+01 -0.52813E+01 -0.80548E+01      982.00
  0.82561E+00  0.67053E+02    0.43750E+00  0.43750E+00 -0.87500E+00  0.00000E+00  0.00000E+00  0.00000E+00    0.23182E+02  0.19676E+02 -0.42858E+02 -0.51990E+01 -0.52279E+01 -0.79800E+01      982.00
  0.84958E+00  0.67163E+02    0.45000E+00  0.45000E+00 -0.90000E+00  0.00000E+00  0.00000E+00  0.00000E+00    0.23393E+02  0.19559E+02 -0.42953E+02 -0.51966E+01 -0.51750E+01 -0.79034E+01      982.00
  0.87356E+00  0.67255E+02    0.46250E+00  0.46250E+00 -0.92500E+00  0.00000E+00  0.00000E+00  0.00000E+00    0.23622E+02  0.19417E+02 -0.43039E+02 -0.51919E+01 -0.51175E+01 -0.78055E+01      982.00
  0.89756E+00  0.67280E+02    0.47500E+00  0.47500E+00 -0.95000E+00  0.00000E+00  0.00000E+00  0.00000E+00    0.23770E+02  0.19318E+02 -0.43087E+02 -0.51656E+01 -0.50239E+01 -0.77193E+01      982.00
  0.92157E+00  0.67312E+02    0.48750E+00  0.48750E+00 -0.97500E+00  0.00000E+00  0.00000E+00  0.00000E+00    0.23924E+02  0.19213E+02 -0.43136E+02 -0.51461E+01 -0.49461E+01 -0.76337E+01      982.00
  0.94560E+00  0.67347E+02    0.50000E+00  0.50000E+00 -0.10000E+01  0.00000E+00  0.00000E+00  0.00000E+00    0.24058E+02  0.19121E+02 -0.43179E+02 -0.51353E+01 -0.48840E+01 -0.75660E+01      982.00
