          Evm          Svm            E11          E22          E33          E23          E13          E12         SDEV11       SDEV22       SDEV33       SDEV23       SDEV13       SDEV12      TEMP
  0.00000E+00  0.59566E+02    0.00000E+00  0.00000E+00  0.00000E+00  0.00000E+00  0.00000E+00  0.00000E+00    0.14319E+02  0.22611E+02 -0.36931E+02 -0.39930E+00  0.30067E+01  0.11551E+02      982.00
  0.23250E-01  0.59710E+02    0.12500E-01  0.12500E-01 -0.25000E-01  0.00000E+00  0.00000E+00  0.00000E+00    0.14516E+02  0.22462E+02 -0.36978E+02 -0.47037E+00  0.29919E+01  0.11745E+02      982.00
  0.46473E-01  0.59905E+02    0.25000E-01  0.25000E-01 -0.50000E-01  0.00000E+00  0.00000E+00  0.00000E+00    0.14691E+02  0.22373E+02 -0.37063E+02 -0.56461E+00  0.29620E+01  0.11920E+02      982.00
  0.69674E-01  0.60133E+02    0.37500E-01  0.37500E-01 -0.75000E-01  0.00000E+00  0.00000E+00  0.00000E+00    0.14862E+02  0.22317E+02 -0.37179E+02 -0.69512E+00  0.29218E+01  0.12072E+02      982.00
  0.92860E-01  0.60369E+02    0.50000E-01  0.50000E-01 -0.10000E+00  0.00000E+00  0.00000E+00  0.00000E+00    0.15014E+02  0.22300E+02 -0.37314E+02 -0.85731E+00  0.28751E+01  0.12177E+02      982.00
  0.11604E+00  0.60588E+02    0.62500E-01  0.62500E-01 -0.12500E+00  0.00000E+00  0.00000E+00  0.00000E+00    0.15120E+02  0.22338E+02 -0.37458E+02 -0.10445E+01  0.28205E+01  0.12216E+02      982.00
  0.13922E+00  0.60750E+02    0.75000E-01  0.75000E-01 -0.15000E+00  0.00000E+00  0.00000E+00  0.00000E+00    0.15154E+02  0.22433E+02 -0.37587E+02 -0.12477E+01  0.27378E+01  0.12177E+02      982.00
  0.16242E+00  0.60890E+02    0.87500E-01  0.87500E-01 -0.17500E+00  0.00000E+00  0.00000E+00  0.00000E+00    0.15124E+02  0.22588E+02 -0.37711E+02 -0.14504E+01  0.26069E+01  0.12100E+02      982.00
  0.18565E+00  0.61033E+02    0.10000E+00  0.10000E+00 -0.20000E+00  0.00000E+00  0.00000E+00  0.00000E+00    0.15062E+02  0.22774E+02 -0.37836E+02 -0.16410E+01  0.24237E+01  0.12023E+02      982.00
  0.20890E+00  0.61205E+02    0.11250E+00  0.11250E+00 -0.22500E+00  0.00000E+00  0.00000E+00  0.00000E+00    0.14988E+02  0.22977E+02 -0.37965E+02 -0.18044E+01  0.22064E+01  0.11982E+02      982.00
  0.23216E+00  0.61398E+02    0.12500E+00  0.12500E+00 -0.25000E+00  0.00000E+00  0.00000E+00  0.00000E+00    0.14904E+02  0.23193E+02 -0.38096E+02 -0.19439E+01  0.19791E+01  0.11966E+02      982.00
  0.25543E+00  0.61623E+02    0.13750E+00  0.13750E+00 -0.27500E+00  0.00000E+00  0.00000E+00  0.00000E+00    0.14826E+02  0.23404E+02 -0.38230E+02 -0.20481E+01  0.17606E+01  0.11997E+02      982.00
  0.27869E+00  0.61870E+02    0.15000E+00  0.15000E+00 -0.30000E+00  0.00000E+00  0.00000E+00  0.00000E+00    0.14754E+02  0.23610E+02 -0.38364E+02 -0.21255E+01  0.15589E+01  0.12065E+02      982.00
  0.30194E+00  0.62141E+02    0.16250E+00  0.16250E+00 -0.32500E+00  0.00000E+00  0.00000E+00  0.00000E+00    0.14695E+02  0.23804E+02 -0.38498E+02 -0.21741E+01  0.13764E+01  0.12174E+02      982.00
  0.32518E+00  0.62424E+02    0.17500E+00  0.17500E+00 -0.35000E+00  0.00000E+00  0.00000E+00  0.00000E+00    0.14656E+02  0.23977E+02 -0.38632E+02 -0.22007E+01  0.12284E+01  0.12309E+02      982.00
  0.34838E+00  0.62713E+02    0.18750E+00  0.18750E+00 -0.37500E+00  0.00000E+00  0.00000E+00  0.00000E+00    0.14631E+02  0.24133E+02 -0.38764E+02 -0.22081E+01  0.11050E+01  0.12464E+02      982.00
  0.37156E+00  0.62992E+02    0.20000E+00  0.20000E+00 -0.40000E+00  0.00000E+00  0.00000E+00  0.00000E+00    0.14617E+02  0.24266E+02 -0.38883E+02 -0.21926E+01  0.10005E+01  0.12635E+02      982.00
  0.39471E+00  0.63281E+02    0.21250E+00  0.21250E+00 -0.42500E+00  0.00000E+00  0.00000E+00  0.00000E+00    0.14614E+02  0.24393E+02 -0.39007E+02 -0.21667E+01  0.91992E+00  0.12816E+02      982.00
  0.41783E+00  0.63556E+02    0.22500E+00  0.22500E+00 -0.45000E+00  0.00000E+00  0.00000E+00  0.00000E+00    0.14617E+02  0.24509E+02 -0.39126E+02 -0.21371E+01  0.86245E+00  0.12983E+02      982.00
  0.44091E+00  0.63833E+02    0.23750E+00  0.23750E+00 -0.47500E+00  0.00000E+00  0.00000E+00  0.00000E+00    0.14625E+02  0.24616E+02 -0.39241E+02 -0.20880E+01  0.81170E+00  0.13167E+02      982.00
  0.46396E+00  0.64101E+02    0.25000E+00  0.25000E+00 -0.50000E+00  0.00000E+00  0.00000E+00  0.00000E+00    0.14633E+02  0.24718E+02 -0.39351E+02 -0.20302E+01  0.77286E+00  0.13346E+02      982.00
  0.48699E+00  0.64358E+02    0.26250E+00  0.26250E+00 -0.52500E+00  0.00000E+00  0.00000E+00  0.00000E+00    0.14640E+02  0.24818E+02 -0.39457E+02 -0.19667E+01  0.74397E+00  0.13516E+02      982.00
  0.50998E+00  0.64597E+02    0.27500E+00  0.27500E+00 -0.55000E+00  0.00000E+00  0.00000E+00  0.00000E+00    0.14643E+02  0.24915E+02 -0.39559E+02 -0.19029E+01  0.72343E+00  0.13666E+02      982.00
  0.53294E+00  0.64817E+02    0.28750E+00  0.28750E+00 -0.57500E+00  0.00000E+00  0.00000E+00  0.00000E+00    0.14637E+02  0.25011E+02 -0.39648E+02 -0.18279E+01  0.71058E+00  0.13808E+02      982.00
  0.55588E+00  0.65042E+02    0.30000E+00  0.30000E+00 -0.60000E+00  0.00000E+00  0.00000E+00  0.00000E+00    0.14622E+02  0.25124E+02 -0.39746E+02 -0.17673E+01  0.70730E+00  0.13933E+02      982.00
  0.57880E+00  0.65253E+02    0.31250E+00  0.31250E+00 -0.62500E+00  0.00000E+00  0.00000E+00  0.00000E+00    0.14598E+02  0.25244E+02 -0.39842E+02 -0.17142E+01  0.71367E+00  0.14036E+02      982.00
  0.60169E+00  0.65470E+02    0.32500E+00  0.32500E+00 -0.65000E+00  0.00000E+00  0.00000E+00  0.00000E+00    0.14574E+02  0.25372E+02 -0.39946E+02 -0.16797E+01  0.72980E+00  0.14124E+02      982.00
  0.62457E+00  0.65658E+02    0.33750E+00  0.33750E+00 -0.67500E+00  0.00000E+00  0.00000E+00  0.00000E+00    0.14534E+02  0.25506E+02 -0.40040E+02 -0.16489E+01  0.76045E+00  0.14184E+02      982.00
  0.64744E+00  0.65833E+02    0.35000E+00  0.35000E+00 -0.70000E+00  0.00000E+00  0.00000E+00  0.00000E+00    0.14486E+02  0.25648E+02 -0.40134E+02 -0.16331E+01  0.80770E+00  0.14218E+02      982.00
  0.67030E+00  0.66001E+02    0.36250E+00  0.36250E+00 -0.72500E+00  0.00000E+00  0.00000E+00  0.00000E+00    0.14430E+02  0.25799E+02 -0.40229E+02 -0.16349E+01  0.87450E+00  0.14230E+02      982.00
  0.69316E+00  0.66174E+02    0.37500E+00  0.37500E+00 -0.75000E+00  0.00000E+00  0.00000E+00  0.00000E+00    0.14383E+02  0.25950E+02 -0.40334E+02 -0.16567E+01  0.95690E+00  0.14229E+02      982.00
  0.71602E+00  0.66324E+02    0.38750E+00  0.38750E+00 -0.77500E+00  0.00000E+00  0.00000E+00  0.00000E+00    0.14325E+02  0.26108E+02 -0.40434E+02 -0.16943E+01  0.10644E+01  0.14193E+02      982.00
  0.73888E+00  0.66461E+02    0.40000E+00  0.40000E+00 -0.80000E+00  0.00000E+00  0.00000E+00  0.00000E+00    0.14273E+02  0.26259E+02 -0.40532E+02 -0.17491E+01  0.11882E+01  0.14137E+02      982.00
  0.76175E+00  0.66601E+02    0.41250E+00  0.41250E+00 -0.82500E+00  0.00000E+00  0.00000E+00  0.00000E+00    0.14225E+02  0.26414E+02 -0.40639E+02 -0.18186E+01  0.13316E+01  0.14059E+02      982.00
  0.78463E+00  0.66737E+02    0.42500E+00  0.42500E+00 -0.85000E+00  0.00000E+00  0.00000E+00  0.00000E+00    0.14195E+02  0.26556E+02 -0.40751E+02 -0.18962E+01  0.14789E+01  0.13970E+02      982.00
  0.80753E+00  0.66871E+02    0.43750E+00  0.43750E+00 -0.87500E+00  0.00000E+00  0.00000E+00  0.00000E+00    0.14174E+02  0.26694E+02 -0.40868E+02 -0.19833E+01  0.16383E+01  0.13862E+02      982.00
  0.83044E+00  0.67005E+02    0.45000E+00  0.45000E+00 -0.90000E+00  0.00000E+00  0.00000E+00  0.00000E+00    0.14168E+02  0.26820E+02 -0.40989E+02 -0.20734E+01  0.17973E+01  0.13746E+02      982.00
  0.85338E+00  0.67137E+02    0.46250E+00  0.46250E+00 -0.92500E+00  0.00000E+00  0.00000E+00  0.00000E+00    0.14180E+02  0.26933E+02 -0.41113E+02 -0.21624E+01  0.19506E+01  0.13624E+02      982.00
  0.87635E+00  0.67268E+02    0.47500E+00  0.47500E+00 -0.95000E+00  0.00000E+00  0.00000E+00  0.00000E+00    0.14207E+02  0.27032E+02 -0.41240E+02 -0.22473E+01  0.20943E+01  0.13499E+02      982.00
  0.89934E+00  0.67397E+02    0.48750E+00  0.48750E+00 -0.97500E+00  0.00000E+00  0.00000E+00  0.00000E+00    0.14250E+02  0.27118E+02 -0.41368E+02 -0.23259E+01  0.22258E+01  0.13375E+02      982.00
  0.92236E+00  0.67525E+02    0.50000E+00  0.50000E+00 -0.10000E+01  0.00000E+00  0.00000E+00  0.00000E+00    0.14305E+02  0.27192E+02 -0.41497E+02 -0.23970E+01  0.23439E+01  0.13252E+02      982.00
