          Evm          Svm            E11          E22          E33          E23          E13          E12         SDEV11       SDEV22       SDEV33       SDEV23       SDEV13       SDEV12      TEMP
  0.00000E+00  0.59394E+02    0.00000E+00  0.00000E+00  0.00000E+00  0.00000E+00  0.00000E+00  0.00000E+00    0.20368E+02  0.16328E+02 -0.36695E+02 -0.13263E+01  0.32252E+01  0.12235E+02      982.00
  0.23169E-01  0.59320E+02    0.12500E-01  0.12500E-01 -0.25000E-01  0.00000E+00  0.00000E+00  0.00000E+00    0.19953E+02  0.16675E+02 -0.36628E+02 -0.14866E+01  0.30304E+01  0.12356E+02      982.00
  0.46324E-01  0.59337E+02    0.25000E-01  0.25000E-01 -0.50000E-01  0.00000E+00  0.00000E+00  0.00000E+00    0.19656E+02  0.16942E+02 -0.36598E+02 -0.16284E+01  0.29155E+01  0.12493E+02      982.00
  0.69453E-01  0.59438E+02    0.37500E-01  0.37500E-01 -0.75000E-01  0.00000E+00  0.00000E+00  0.00000E+00    0.19427E+02  0.17178E+02 -0.36605E+02 -0.17709E+01  0.28347E+01  0.12659E+02      982.00
  0.92547E-01  0.59614E+02    0.50000E-01  0.50000E-01 -0.10000E+00  0.00000E+00  0.00000E+00  0.00000E+00    0.19263E+02  0.17384E+02 -0.36647E+02 -0.19056E+01  0.27827E+01  0.12849E+02      982.00
  0.11560E+00  0.59852E+02    0.62500E-01  0.62500E-01 -0.12500E+00  0.00000E+00  0.00000E+00  0.00000E+00    0.19147E+02  0.17571E+02 -0.36718E+02 -0.20335E+01  0.27475E+01  0.13062E+02      982.00
  0.13861E+00  0.60139E+02    0.75000E-01  0.75000E-01 -0.15000E+00  0.00000E+00  0.00000E+00  0.00000E+00    0.19072E+02  0.17742E+02 -0.36814E+02 -0.21511E+01  0.27254E+01  0.13289E+02      982.00
  0.16156E+00  0.60462E+02    0.87500E-01  0.87500E-01 -0.17500E+00  0.00000E+00  0.00000E+00  0.00000E+00    0.19029E+02  0.17900E+02 -0.36929E+02 -0.22574E+01  0.27119E+01  0.13526E+02      982.00
  0.18447E+00  0.60808E+02    0.10000E+00  0.10000E+00 -0.20000E+00  0.00000E+00  0.00000E+00  0.00000E+00    0.19015E+02  0.18043E+02 -0.37059E+02 -0.23493E+01  0.27073E+01  0.13765E+02      982.00
  0.20732E+00  0.61168E+02    0.11250E+00  0.11250E+00 -0.22500E+00  0.00000E+00  0.00000E+00  0.00000E+00    0.19014E+02  0.18183E+02 -0.37197E+02 -0.24323E+01  0.27023E+01  0.14002E+02      982.00
  0.23012E+00  0.61533E+02    0.12500E+00  0.12500E+00 -0.25000E+00  0.00000E+00  0.00000E+00  0.00000E+00    0.19030E+02  0.18313E+02 -0.37343E+02 -0.25023E+01  0.27021E+01  0.14231E+02      982.00
  0.25288E+00  0.61898E+02    0.13750E+00  0.13750E+00 -0.27500E+00  0.00000E+00  0.00000E+00  0.00000E+00    0.19050E+02  0.18442E+02 -0.37492E+02 -0.25642E+01  0.26999E+01  0.14454E+02      982.00
  0.27560E+00  0.62253E+02    0.15000E+00  0.15000E+00 -0.30000E+00  0.00000E+00  0.00000E+00  0.00000E+00    0.19074E+02  0.18567E+02 -0.37641E+02 -0.26179E+01  0.26944E+01  0.14663E+02      982.00
  0.29827E+00  0.62604E+02    0.16250E+00  0.16250E+00 -0.32500E+00  0.00000E+00  0.00000E+00  0.00000E+00    0.19106E+02  0.18684E+02 -0.37790E+02 -0.26617E+01  0.26931E+01  0.14866E+02      982.00
  0.32091E+00  0.62946E+02    0.17500E+00  0.17500E+00 -0.35000E+00  0.00000E+00  0.00000E+00  0.00000E+00    0.19138E+02  0.18801E+02 -0.37939E+02 -0.27041E+01  0.26921E+01  0.15055E+02      982.00
  0.34351E+00  0.63285E+02    0.18750E+00  0.18750E+00 -0.37500E+00  0.00000E+00  0.00000E+00  0.00000E+00    0.19175E+02  0.18906E+02 -0.38082E+02 -0.27424E+01  0.26971E+01  0.15249E+02      982.00
  0.36607E+00  0.63616E+02    0.20000E+00  0.20000E+00 -0.40000E+00  0.00000E+00  0.00000E+00  0.00000E+00    0.19215E+02  0.19003E+02 -0.38218E+02 -0.27853E+01  0.27131E+01  0.15441E+02      982.00
  0.38860E+00  0.63918E+02    0.21250E+00  0.21250E+00 -0.42500E+00  0.00000E+00  0.00000E+00  0.00000E+00    0.19247E+02  0.19090E+02 -0.38337E+02 -0.28392E+01  0.27382E+01  0.15619E+02      982.00
  0.41109E+00  0.64186E+02    0.22500E+00  0.22500E+00 -0.45000E+00  0.00000E+00  0.00000E+00  0.00000E+00    0.19279E+02  0.19161E+02 -0.38440E+02 -0.28898E+01  0.27717E+01  0.15780E+02      982.00
  0.43355E+00  0.64444E+02    0.23750E+00  0.23750E+00 -0.47500E+00  0.00000E+00  0.00000E+00  0.00000E+00    0.19304E+02  0.19233E+02 -0.38538E+02 -0.29226E+01  0.27891E+01  0.15943E+02      982.00
  0.45598E+00  0.64671E+02    0.25000E+00  0.25000E+00 -0.50000E+00  0.00000E+00  0.00000E+00  0.00000E+00    0.19325E+02  0.19300E+02 -0.38624E+02 -0.29162E+01  0.27726E+01  0.16095E+02      982.00
  0.47837E+00  0.64880E+02    0.26250E+00  0.26250E+00 -0.52500E+00  0.00000E+00  0.00000E+00  0.00000E+00    0.19344E+02  0.19358E+02 -0.38702E+02 -0.28845E+01  0.27349E+01  0.16246E+02      982.00
  0.50074E+00  0.65066E+02    0.27500E+00  0.27500E+00 -0.55000E+00  0.00000E+00  0.00000E+00  0.00000E+00    0.19351E+02  0.19420E+02 -0.38772E+02 -0.28250E+01  0.26645E+01  0.16392E+02      982.00
  0.52309E+00  0.65239E+02    0.28750E+00  0.28750E+00 -0.57500E+00  0.00000E+00  0.00000E+00  0.00000E+00    0.19361E+02  0.19472E+02 -0.38833E+02 -0.27540E+01  0.25873E+01  0.16535E+02      982.00
  0.54541E+00  0.65405E+02    0.30000E+00  0.30000E+00 -0.60000E+00  0.00000E+00  0.00000E+00  0.00000E+00    0.19366E+02  0.19526E+02 -0.38892E+02 -0.26762E+01  0.25005E+01  0.16675E+02      982.00
  0.56771E+00  0.65562E+02    0.31250E+00  0.31250E+00 -0.62500E+00  0.00000E+00  0.00000E+00  0.00000E+00    0.19370E+02  0.19577E+02 -0.38947E+02 -0.25957E+01  0.24112E+01  0.16811E+02      982.00
  0.58999E+00  0.65711E+02    0.32500E+00  0.32500E+00 -0.65000E+00  0.00000E+00  0.00000E+00  0.00000E+00    0.19374E+02  0.19622E+02 -0.38996E+02 -0.25161E+01  0.23233E+01  0.16943E+02      982.00
  0.61224E+00  0.65852E+02    0.33750E+00  0.33750E+00 -0.67500E+00  0.00000E+00  0.00000E+00  0.00000E+00    0.19377E+02  0.19664E+02 -0.39041E+02 -0.24404E+01  0.22396E+01  0.17068E+02      982.00
  0.63447E+00  0.65979E+02    0.35000E+00  0.35000E+00 -0.70000E+00  0.00000E+00  0.00000E+00  0.00000E+00    0.19375E+02  0.19707E+02 -0.39082E+02 -0.23613E+01  0.21494E+01  0.17185E+02      982.00
  0.65669E+00  0.66106E+02    0.36250E+00  0.36250E+00 -0.72500E+00  0.00000E+00  0.00000E+00  0.00000E+00    0.19381E+02  0.19740E+02 -0.39121E+02 -0.22984E+01  0.20792E+01  0.17296E+02      982.00
  0.67888E+00  0.66223E+02    0.37500E+00  0.37500E+00 -0.75000E+00  0.00000E+00  0.00000E+00  0.00000E+00    0.19388E+02  0.19770E+02 -0.39158E+02 -0.22419E+01  0.20162E+01  0.17399E+02      982.00
  0.70105E+00  0.66334E+02    0.38750E+00  0.38750E+00 -0.77500E+00  0.00000E+00  0.00000E+00  0.00000E+00    0.19397E+02  0.19796E+02 -0.39192E+02 -0.21920E+01  0.19601E+01  0.17494E+02      982.00
  0.72321E+00  0.66433E+02    0.40000E+00  0.40000E+00 -0.80000E+00  0.00000E+00  0.00000E+00  0.00000E+00    0.19402E+02  0.19822E+02 -0.39224E+02 -0.21436E+01  0.19028E+01  0.17578E+02      982.00
  0.74535E+00  0.66530E+02    0.41250E+00  0.41250E+00 -0.82500E+00  0.00000E+00  0.00000E+00  0.00000E+00    0.19412E+02  0.19842E+02 -0.39254E+02 -0.21064E+01  0.18594E+01  0.17658E+02      982.00
  0.76747E+00  0.66621E+02    0.42500E+00  0.42500E+00 -0.85000E+00  0.00000E+00  0.00000E+00  0.00000E+00    0.19425E+02  0.19859E+02 -0.39283E+02 -0.20743E+01  0.18219E+01  0.17731E+02      982.00
  0.78959E+00  0.66703E+02    0.43750E+00  0.43750E+00 -0.87500E+00  0.00000E+00  0.00000E+00  0.00000E+00    0.19438E+02  0.19873E+02 -0.39311E+02 -0.20521E+01  0.17948E+01  0.17794E+02      982.00
  0.81169E+00  0.66782E+02    0.45000E+00  0.45000E+00 -0.90000E+00  0.00000E+00  0.00000E+00  0.00000E+00    0.19452E+02  0.19885E+02 -0.39337E+02 -0.20277E+01  0.17657E+01  0.17855E+02      982.00
  0.83378E+00  0.66847E+02    0.46250E+00  0.46250E+00 -0.92500E+00  0.00000E+00  0.00000E+00  0.00000E+00    0.19465E+02  0.19894E+02 -0.39358E+02 -0.20108E+01  0.17446E+01  0.17904E+02      982.00
  0.85586E+00  0.66903E+02    0.47500E+00  0.47500E+00 -0.95000E+00  0.00000E+00  0.00000E+00  0.00000E+00    0.19477E+02  0.19903E+02 -0.39380E+02 -0.19856E+01  0.17117E+01  0.17945E+02      982.00
  0.87793E+00  0.66971E+02    0.48750E+00  0.48750E+00 -0.97500E+00  0.00000E+00  0.00000E+00  0.00000E+00    0.19494E+02  0.19910E+02 -0.39403E+02 -0.19711E+01  0.16921E+01  0.17994E+02      982.00
  0.89999E+00  0.67032E+02    0.50000E+00  0.50000E+00 -0.10000E+01  0.00000E+00  0.00000E+00  0.00000E+00    0.19511E+02  0.19914E+02 -0.39425E+02 -0.19592E+01  0.16755E+01  0.18037E+02      982.00
