          Evm          Svm            E11          E22          E33          E23          E13          E12         SDEV11       SDEV22       SDEV33       SDEV23       SDEV13       SDEV12      TEMP
  0.00000E+00  0.61201E+02    0.00000E+00  0.00000E+00  0.00000E+00  0.00000E+00  0.00000E+00  0.00000E+00    0.20281E+02  0.16633E+02 -0.36915E+02 -0.24111E+01  0.98345E+00  0.14710E+02      982.00
  0.22619E-01  0.61220E+02    0.12500E-01  0.12500E-01 -0.25000E-01  0.00000E+00  0.00000E+00  0.00000E+00    0.20150E+02  0.16770E+02 -0.36920E+02 -0.23759E+01  0.96892E+00  0.14749E+02      982.00
  0.45234E-01  0.61278E+02    0.25000E-01  0.25000E-01 -0.50000E-01  0.00000E+00  0.00000E+00  0.00000E+00    0.20095E+02  0.16862E+02 -0.36957E+02 -0.23356E+01  0.98309E+00  0.14774E+02      982.00
  0.67851E-01  0.61338E+02    0.37500E-01  0.37500E-01 -0.75000E-01  0.00000E+00  0.00000E+00  0.00000E+00    0.20077E+02  0.16932E+02 -0.37009E+02 -0.22930E+01  0.10203E+01  0.14767E+02      982.00
  0.90477E-01  0.61397E+02    0.50000E-01  0.50000E-01 -0.10000E+00  0.00000E+00  0.00000E+00  0.00000E+00    0.20107E+02  0.16966E+02 -0.37073E+02 -0.22433E+01  0.10789E+01  0.14733E+02      982.00
  0.11312E+00  0.61474E+02    0.62500E-01  0.62500E-01 -0.12500E+00  0.00000E+00  0.00000E+00  0.00000E+00    0.20186E+02  0.16973E+02 -0.37159E+02 -0.21840E+01  0.11370E+01  0.14679E+02      982.00
  0.13579E+00  0.61579E+02    0.75000E-01  0.75000E-01 -0.15000E+00  0.00000E+00  0.00000E+00  0.00000E+00    0.20294E+02  0.16969E+02 -0.37262E+02 -0.21102E+01  0.11814E+01  0.14630E+02      982.00
  0.15848E+00  0.61707E+02    0.87500E-01  0.87500E-01 -0.17500E+00  0.00000E+00  0.00000E+00  0.00000E+00    0.20418E+02  0.16955E+02 -0.37373E+02 -0.20178E+01  0.12132E+01  0.14600E+02      982.00
  0.18119E+00  0.61876E+02    0.10000E+00  0.10000E+00 -0.20000E+00  0.00000E+00  0.00000E+00  0.00000E+00    0.20546E+02  0.16952E+02 -0.37499E+02 -0.19175E+01  0.12269E+01  0.14601E+02      982.00
  0.20392E+00  0.62066E+02    0.11250E+00  0.11250E+00 -0.22500E+00  0.00000E+00  0.00000E+00  0.00000E+00    0.20680E+02  0.16947E+02 -0.37627E+02 -0.18140E+01  0.12265E+01  0.14627E+02      982.00
  0.22665E+00  0.62273E+02    0.12500E+00  0.12500E+00 -0.25000E+00  0.00000E+00  0.00000E+00  0.00000E+00    0.20813E+02  0.16943E+02 -0.37756E+02 -0.17134E+01  0.12133E+01  0.14675E+02      982.00
  0.24939E+00  0.62507E+02    0.13750E+00  0.13750E+00 -0.27500E+00  0.00000E+00  0.00000E+00  0.00000E+00    0.20937E+02  0.16956E+02 -0.37894E+02 -0.16213E+01  0.11937E+01  0.14746E+02      982.00
  0.27212E+00  0.62748E+02    0.15000E+00  0.15000E+00 -0.30000E+00  0.00000E+00  0.00000E+00  0.00000E+00    0.21054E+02  0.16972E+02 -0.38027E+02 -0.15353E+01  0.11669E+01  0.14834E+02      982.00
  0.29485E+00  0.63010E+02    0.16250E+00  0.16250E+00 -0.32500E+00  0.00000E+00  0.00000E+00  0.00000E+00    0.21165E+02  0.17001E+02 -0.38166E+02 -0.14553E+01  0.11359E+01  0.14940E+02      982.00
  0.31756E+00  0.63262E+02    0.17500E+00  0.17500E+00 -0.35000E+00  0.00000E+00  0.00000E+00  0.00000E+00    0.21261E+02  0.17043E+02 -0.38304E+02 -0.13911E+01  0.11105E+01  0.15034E+02      982.00
  0.34027E+00  0.63511E+02    0.18750E+00  0.18750E+00 -0.37500E+00  0.00000E+00  0.00000E+00  0.00000E+00    0.21348E+02  0.17092E+02 -0.38440E+02 -0.13344E+01  0.10857E+01  0.15128E+02      982.00
  0.36296E+00  0.63753E+02    0.20000E+00  0.20000E+00 -0.40000E+00  0.00000E+00  0.00000E+00  0.00000E+00    0.21428E+02  0.17144E+02 -0.38572E+02 -0.12842E+01  0.10617E+01  0.15218E+02      982.00
  0.38565E+00  0.64012E+02    0.21250E+00  0.21250E+00 -0.42500E+00  0.00000E+00  0.00000E+00  0.00000E+00    0.21507E+02  0.17201E+02 -0.38708E+02 -0.12303E+01  0.10312E+01  0.15326E+02      982.00
  0.40833E+00  0.64234E+02    0.22500E+00  0.22500E+00 -0.45000E+00  0.00000E+00  0.00000E+00  0.00000E+00    0.21576E+02  0.17256E+02 -0.38832E+02 -0.11903E+01  0.10087E+01  0.15405E+02      982.00
  0.43100E+00  0.64445E+02    0.23750E+00  0.23750E+00 -0.47500E+00  0.00000E+00  0.00000E+00  0.00000E+00    0.21641E+02  0.17310E+02 -0.38951E+02 -0.11540E+01  0.98688E+00  0.15477E+02      982.00
  0.45366E+00  0.64646E+02    0.25000E+00  0.25000E+00 -0.50000E+00  0.00000E+00  0.00000E+00  0.00000E+00    0.21703E+02  0.17363E+02 -0.39065E+02 -0.11202E+01  0.96519E+00  0.15542E+02      982.00
  0.47632E+00  0.64835E+02    0.26250E+00  0.26250E+00 -0.52500E+00  0.00000E+00  0.00000E+00  0.00000E+00    0.21762E+02  0.17413E+02 -0.39176E+02 -0.10885E+01  0.94357E+00  0.15600E+02      982.00
  0.49898E+00  0.65015E+02    0.27500E+00  0.27500E+00 -0.55000E+00  0.00000E+00  0.00000E+00  0.00000E+00    0.21820E+02  0.17462E+02 -0.39282E+02 -0.10586E+01  0.92212E+00  0.15651E+02      982.00
  0.52164E+00  0.65184E+02    0.28750E+00  0.28750E+00 -0.57500E+00  0.00000E+00  0.00000E+00  0.00000E+00    0.21877E+02  0.17507E+02 -0.39384E+02 -0.10307E+01  0.90107E+00  0.15695E+02      982.00
  0.54430E+00  0.65365E+02    0.30000E+00  0.30000E+00 -0.60000E+00  0.00000E+00  0.00000E+00  0.00000E+00    0.21937E+02  0.17556E+02 -0.39493E+02 -0.99635E+00  0.87339E+00  0.15745E+02      982.00
  0.56695E+00  0.65514E+02    0.31250E+00  0.31250E+00 -0.62500E+00  0.00000E+00  0.00000E+00  0.00000E+00    0.21992E+02  0.17596E+02 -0.39588E+02 -0.97356E+00  0.85432E+00  0.15773E+02      982.00
  0.58961E+00  0.65634E+02    0.32500E+00  0.32500E+00 -0.65000E+00  0.00000E+00  0.00000E+00  0.00000E+00    0.22041E+02  0.17625E+02 -0.39666E+02 -0.96084E+00  0.84283E+00  0.15791E+02      982.00
  0.61228E+00  0.65806E+02    0.33750E+00  0.33750E+00 -0.67500E+00  0.00000E+00  0.00000E+00  0.00000E+00    0.22112E+02  0.17668E+02 -0.39780E+02 -0.94066E+00  0.82295E+00  0.15815E+02      982.00
  0.63495E+00  0.65927E+02    0.35000E+00  0.35000E+00 -0.70000E+00  0.00000E+00  0.00000E+00  0.00000E+00    0.22171E+02  0.17696E+02 -0.39867E+02 -0.93721E+00  0.81659E+00  0.15818E+02      982.00
  0.65762E+00  0.66040E+02    0.36250E+00  0.36250E+00 -0.72500E+00  0.00000E+00  0.00000E+00  0.00000E+00    0.22231E+02  0.17721E+02 -0.39952E+02 -0.94624E+00  0.82014E+00  0.15810E+02      982.00
  0.68031E+00  0.66145E+02    0.37500E+00  0.37500E+00 -0.75000E+00  0.00000E+00  0.00000E+00  0.00000E+00    0.22293E+02  0.17743E+02 -0.40037E+02 -0.96942E+00  0.83488E+00  0.15792E+02      982.00
  0.70301E+00  0.66220E+02    0.38750E+00  0.38750E+00 -0.77500E+00  0.00000E+00  0.00000E+00  0.00000E+00    0.22328E+02  0.17770E+02 -0.40098E+02 -0.98917E+00  0.85269E+00  0.15777E+02      982.00
  0.72572E+00  0.66322E+02    0.40000E+00  0.40000E+00 -0.80000E+00  0.00000E+00  0.00000E+00  0.00000E+00    0.22389E+02  0.17795E+02 -0.40184E+02 -0.10338E+01  0.88622E+00  0.15747E+02      982.00
  0.74844E+00  0.66434E+02    0.41250E+00  0.41250E+00 -0.82500E+00  0.00000E+00  0.00000E+00  0.00000E+00    0.22451E+02  0.17830E+02 -0.40281E+02 -0.10866E+01  0.92747E+00  0.15712E+02      982.00
  0.77117E+00  0.66546E+02    0.42500E+00  0.42500E+00 -0.85000E+00  0.00000E+00  0.00000E+00  0.00000E+00    0.22517E+02  0.17864E+02 -0.40381E+02 -0.11587E+01  0.98403E+00  0.15665E+02      982.00
  0.79393E+00  0.66640E+02    0.43750E+00  0.43750E+00 -0.87500E+00  0.00000E+00  0.00000E+00  0.00000E+00    0.22582E+02  0.17891E+02 -0.40473E+02 -0.12549E+01  0.10596E+01  0.15607E+02      982.00
  0.81671E+00  0.66737E+02    0.45000E+00  0.45000E+00 -0.90000E+00  0.00000E+00  0.00000E+00  0.00000E+00    0.22648E+02  0.17923E+02 -0.40571E+02 -0.13667E+01  0.11479E+01  0.15534E+02      982.00
  0.83950E+00  0.66832E+02    0.46250E+00  0.46250E+00 -0.92500E+00  0.00000E+00  0.00000E+00  0.00000E+00    0.22718E+02  0.17956E+02 -0.40675E+02 -0.15022E+01  0.12551E+01  0.15443E+02      982.00
  0.86233E+00  0.66929E+02    0.47500E+00  0.47500E+00 -0.95000E+00  0.00000E+00  0.00000E+00  0.00000E+00    0.22787E+02  0.17995E+02 -0.40782E+02 -0.16443E+01  0.13681E+01  0.15344E+02      982.00
  0.88518E+00  0.67029E+02    0.48750E+00  0.48750E+00 -0.97500E+00  0.00000E+00  0.00000E+00  0.00000E+00    0.22855E+02  0.18040E+02 -0.40896E+02 -0.17905E+01  0.14845E+01  0.15235E+02      982.00
  0.90806E+00  0.67133E+02    0.50000E+00  0.50000E+00 -0.10000E+01  0.00000E+00  0.00000E+00  0.00000E+00    0.22924E+02  0.18090E+02 -0.41014E+02 -0.19449E+01  0.16072E+01  0.15113E+02      982.00
