          Evm          Svm            E11          E22          E33          E23          E13          E12         SDEV11       SDEV22       SDEV33       SDEV23       SDEV13       SDEV12      TEMP
  0.00000E+00  0.60501E+02    0.00000E+00  0.00000E+00  0.00000E+00  0.00000E+00  0.00000E+00  0.00000E+00    0.13385E+02  0.24202E+02 -0.37587E+02 -0.35582E+01 -0.48897E+01 -0.97340E+01      982.00
  0.23297E-01  0.60884E+02    0.12500E-01  0.12500E-01 -0.25000E-01  0.00000E+00  0.00000E+00  0.00000E+00    0.13694E+02  0.24178E+02 -0.37872E+02 -0.35825E+01 -0.50301E+01 -0.97116E+01      982.00
  0.46623E-01  0.61030E+02    0.25000E-01  0.25000E-01 -0.50000E-01  0.00000E+00  0.00000E+00  0.00000E+00    0.14043E+02  0.24006E+02 -0.38048E+02 -0.35438E+01 -0.51421E+01 -0.95909E+01      982.00
  0.70002E-01  0.61082E+02    0.37500E-01  0.37500E-01 -0.75000E-01  0.00000E+00  0.00000E+00  0.00000E+00    0.14281E+02  0.23889E+02 -0.38170E+02 -0.36302E+01 -0.50951E+01 -0.94201E+01      982.00
  0.93436E-01  0.61164E+02    0.50000E-01  0.50000E-01 -0.10000E+00  0.00000E+00  0.00000E+00  0.00000E+00    0.14389E+02  0.23914E+02 -0.38303E+02 -0.38425E+01 -0.49165E+01 -0.92233E+01      982.00
  0.11692E+00  0.61343E+02    0.62500E-01  0.62500E-01 -0.12500E+00  0.00000E+00  0.00000E+00  0.00000E+00    0.14464E+02  0.24008E+02 -0.38473E+02 -0.40887E+01 -0.47465E+01 -0.90670E+01      982.00
  0.14044E+00  0.61580E+02    0.75000E-01  0.75000E-01 -0.15000E+00  0.00000E+00  0.00000E+00  0.00000E+00    0.14507E+02  0.24156E+02 -0.38663E+02 -0.43172E+01 -0.45889E+01 -0.89388E+01      982.00
  0.16398E+00  0.61862E+02    0.87500E-01  0.87500E-01 -0.17500E+00  0.00000E+00  0.00000E+00  0.00000E+00    0.14531E+02  0.24342E+02 -0.38872E+02 -0.45051E+01 -0.44540E+01 -0.88400E+01      982.00
  0.18755E+00  0.62180E+02    0.10000E+00  0.10000E+00 -0.20000E+00  0.00000E+00  0.00000E+00  0.00000E+00    0.14553E+02  0.24543E+02 -0.39097E+02 -0.46454E+01 -0.43499E+01 -0.87702E+01      982.00
  0.21113E+00  0.62526E+02    0.11250E+00  0.11250E+00 -0.22500E+00  0.00000E+00  0.00000E+00  0.00000E+00    0.14569E+02  0.24765E+02 -0.39334E+02 -0.47444E+01 -0.42665E+01 -0.87241E+01      982.00
  0.23472E+00  0.62892E+02    0.12500E+00  0.12500E+00 -0.25000E+00  0.00000E+00  0.00000E+00  0.00000E+00    0.14586E+02  0.24995E+02 -0.39581E+02 -0.48068E+01 -0.42035E+01 -0.86968E+01      982.00
  0.25832E+00  0.63270E+02    0.13750E+00  0.13750E+00 -0.27500E+00  0.00000E+00  0.00000E+00  0.00000E+00    0.14604E+02  0.25229E+02 -0.39833E+02 -0.48393E+01 -0.41576E+01 -0.86830E+01      982.00
  0.28193E+00  0.63650E+02    0.15000E+00  0.15000E+00 -0.30000E+00  0.00000E+00  0.00000E+00  0.00000E+00    0.14627E+02  0.25461E+02 -0.40087E+02 -0.48481E+01 -0.41257E+01 -0.86778E+01      982.00
  0.30554E+00  0.64026E+02    0.16250E+00  0.16250E+00 -0.32500E+00  0.00000E+00  0.00000E+00  0.00000E+00    0.14652E+02  0.25687E+02 -0.40339E+02 -0.48391E+01 -0.41054E+01 -0.86777E+01      982.00
  0.32917E+00  0.64398E+02    0.17500E+00  0.17500E+00 -0.35000E+00  0.00000E+00  0.00000E+00  0.00000E+00    0.14687E+02  0.25901E+02 -0.40588E+02 -0.48154E+01 -0.41002E+01 -0.86816E+01      982.00
  0.35281E+00  0.64755E+02    0.18750E+00  0.18750E+00 -0.37500E+00  0.00000E+00  0.00000E+00  0.00000E+00    0.14720E+02  0.26109E+02 -0.40829E+02 -0.47831E+01 -0.40983E+01 -0.86837E+01      982.00
  0.37645E+00  0.65098E+02    0.20000E+00  0.20000E+00 -0.40000E+00  0.00000E+00  0.00000E+00  0.00000E+00    0.14755E+02  0.26306E+02 -0.41061E+02 -0.47439E+01 -0.41024E+01 -0.86835E+01      982.00
  0.40010E+00  0.65411E+02    0.21250E+00  0.21250E+00 -0.42500E+00  0.00000E+00  0.00000E+00  0.00000E+00    0.14791E+02  0.26485E+02 -0.41275E+02 -0.46991E+01 -0.41089E+01 -0.86794E+01      982.00
  0.42377E+00  0.65724E+02    0.22500E+00  0.22500E+00 -0.45000E+00  0.00000E+00  0.00000E+00  0.00000E+00    0.14826E+02  0.26663E+02 -0.41489E+02 -0.46518E+01 -0.41245E+01 -0.86718E+01      982.00
  0.44744E+00  0.66033E+02    0.23750E+00  0.23750E+00 -0.47500E+00  0.00000E+00  0.00000E+00  0.00000E+00    0.14865E+02  0.26839E+02 -0.41704E+02 -0.45969E+01 -0.41443E+01 -0.86541E+01      982.00
  0.47112E+00  0.66309E+02    0.25000E+00  0.25000E+00 -0.50000E+00  0.00000E+00  0.00000E+00  0.00000E+00    0.14911E+02  0.26986E+02 -0.41898E+02 -0.45433E+01 -0.41641E+01 -0.86377E+01      982.00
  0.49482E+00  0.66588E+02    0.26250E+00  0.26250E+00 -0.52500E+00  0.00000E+00  0.00000E+00  0.00000E+00    0.14952E+02  0.27146E+02 -0.42099E+02 -0.44761E+01 -0.41872E+01 -0.86046E+01      982.00
  0.51852E+00  0.66827E+02    0.27500E+00  0.27500E+00 -0.55000E+00  0.00000E+00  0.00000E+00  0.00000E+00    0.14994E+02  0.27276E+02 -0.42270E+02 -0.44218E+01 -0.42083E+01 -0.85799E+01      982.00
  0.54224E+00  0.67048E+02    0.28750E+00  0.28750E+00 -0.57500E+00  0.00000E+00  0.00000E+00  0.00000E+00    0.15035E+02  0.27394E+02 -0.42429E+02 -0.43685E+01 -0.42284E+01 -0.85520E+01      982.00
  0.56597E+00  0.67253E+02    0.30000E+00  0.30000E+00 -0.60000E+00  0.00000E+00  0.00000E+00  0.00000E+00    0.15074E+02  0.27505E+02 -0.42579E+02 -0.43162E+01 -0.42477E+01 -0.85215E+01      982.00
  0.58972E+00  0.67444E+02    0.31250E+00  0.31250E+00 -0.62500E+00  0.00000E+00  0.00000E+00  0.00000E+00    0.15109E+02  0.27610E+02 -0.42719E+02 -0.42651E+01 -0.42659E+01 -0.84886E+01      982.00
  0.61347E+00  0.67612E+02    0.32500E+00  0.32500E+00 -0.65000E+00  0.00000E+00  0.00000E+00  0.00000E+00    0.15143E+02  0.27697E+02 -0.42840E+02 -0.42316E+01 -0.42785E+01 -0.84673E+01      982.00
  0.63723E+00  0.67790E+02    0.33750E+00  0.33750E+00 -0.67500E+00  0.00000E+00  0.00000E+00  0.00000E+00    0.15169E+02  0.27807E+02 -0.42975E+02 -0.41725E+01 -0.43013E+01 -0.84167E+01      982.00
  0.66100E+00  0.67935E+02    0.35000E+00  0.35000E+00 -0.70000E+00  0.00000E+00  0.00000E+00  0.00000E+00    0.15195E+02  0.27886E+02 -0.43081E+02 -0.41390E+01 -0.43104E+01 -0.83928E+01      982.00
  0.68478E+00  0.68079E+02    0.36250E+00  0.36250E+00 -0.72500E+00  0.00000E+00  0.00000E+00  0.00000E+00    0.15216E+02  0.27973E+02 -0.43189E+02 -0.40936E+01 -0.43238E+01 -0.83539E+01      982.00
  0.70857E+00  0.68212E+02    0.37500E+00  0.37500E+00 -0.75000E+00  0.00000E+00  0.00000E+00  0.00000E+00    0.15235E+02  0.28055E+02 -0.43291E+02 -0.40487E+01 -0.43365E+01 -0.83144E+01      982.00
  0.73237E+00  0.68327E+02    0.38750E+00  0.38750E+00 -0.77500E+00  0.00000E+00  0.00000E+00  0.00000E+00    0.15247E+02  0.28131E+02 -0.43378E+02 -0.40039E+01 -0.43540E+01 -0.82734E+01      982.00
  0.75618E+00  0.68442E+02    0.40000E+00  0.40000E+00 -0.80000E+00  0.00000E+00  0.00000E+00  0.00000E+00    0.15263E+02  0.28204E+02 -0.43467E+02 -0.39597E+01 -0.43655E+01 -0.82336E+01      982.00
  0.78000E+00  0.68553E+02    0.41250E+00  0.41250E+00 -0.82500E+00  0.00000E+00  0.00000E+00  0.00000E+00    0.15279E+02  0.28271E+02 -0.43550E+02 -0.39276E+01 -0.43652E+01 -0.82082E+01      982.00
  0.80382E+00  0.68648E+02    0.42500E+00  0.42500E+00 -0.85000E+00  0.00000E+00  0.00000E+00  0.00000E+00    0.15280E+02  0.28346E+02 -0.43626E+02 -0.38793E+01 -0.43836E+01 -0.81535E+01      982.00
  0.82765E+00  0.68745E+02    0.43750E+00  0.43750E+00 -0.87500E+00  0.00000E+00  0.00000E+00  0.00000E+00    0.15293E+02  0.28406E+02 -0.43699E+02 -0.38480E+01 -0.43848E+01 -0.81275E+01      982.00
  0.85149E+00  0.68831E+02    0.45000E+00  0.45000E+00 -0.90000E+00  0.00000E+00  0.00000E+00  0.00000E+00    0.15295E+02  0.28471E+02 -0.43766E+02 -0.38108E+01 -0.43927E+01 -0.80878E+01      982.00
  0.87533E+00  0.68911E+02    0.46250E+00  0.46250E+00 -0.92500E+00  0.00000E+00  0.00000E+00  0.00000E+00    0.15296E+02  0.28532E+02 -0.43829E+02 -0.37736E+01 -0.44012E+01 -0.80483E+01      982.00
  0.89918E+00  0.68930E+02    0.47500E+00  0.47500E+00 -0.95000E+00  0.00000E+00  0.00000E+00  0.00000E+00    0.15295E+02  0.28562E+02 -0.43857E+02 -0.37176E+01 -0.43963E+01 -0.80042E+01      982.00
  0.92304E+00  0.68948E+02    0.48750E+00  0.48750E+00 -0.97500E+00  0.00000E+00  0.00000E+00  0.00000E+00    0.15291E+02  0.28592E+02 -0.43883E+02 -0.36677E+01 -0.43913E+01 -0.79600E+01      982.00
  0.94691E+00  0.68964E+02    0.50000E+00  0.50000E+00 -0.10000E+01  0.00000E+00  0.00000E+00  0.00000E+00    0.15285E+02  0.28622E+02 -0.43907E+02 -0.36198E+01 -0.43859E+01 -0.79173E+01      982.00
