          Evm          Svm            E11          E22          E33          E23          E13          E12         SDEV11       SDEV22       SDEV33       SDEV23       SDEV13       SDEV12      TEMP
  0.00000E+00  0.63933E+02    0.00000E+00  0.00000E+00  0.00000E+00  0.00000E+00  0.00000E+00  0.00000E+00    0.21570E+02  0.20182E+02 -0.41751E+02  0.72829E+01 -0.12517E+01 -0.95974E-01      982.00
  0.24489E-01  0.63678E+02    0.12500E-01  0.12500E-01 -0.25000E-01  0.00000E+00  0.00000E+00  0.00000E+00    0.21772E+02  0.19818E+02 -0.41590E+02  0.71975E+01 -0.12362E+01  0.15574E+00      982.00
  0.48982E-01  0.63525E+02    0.25000E-01  0.25000E-01 -0.50000E-01  0.00000E+00  0.00000E+00  0.00000E+00    0.22034E+02  0.19457E+02 -0.41492E+02  0.71147E+01 -0.12240E+01  0.42797E+00      982.00
  0.73475E-01  0.63444E+02    0.37500E-01  0.37500E-01 -0.75000E-01  0.00000E+00  0.00000E+00  0.00000E+00    0.22372E+02  0.19073E+02 -0.41445E+02  0.69836E+01 -0.11879E+01  0.74330E+00      982.00
  0.97972E-01  0.63430E+02    0.50000E-01  0.50000E-01 -0.10000E+00  0.00000E+00  0.00000E+00  0.00000E+00    0.22763E+02  0.18682E+02 -0.41444E+02  0.68035E+01 -0.11248E+01  0.10905E+01      982.00
  0.12247E+00  0.63454E+02    0.62500E-01  0.62500E-01 -0.12500E+00  0.00000E+00  0.00000E+00  0.00000E+00    0.23177E+02  0.18293E+02 -0.41469E+02  0.65706E+01 -0.10343E+01  0.14587E+01      982.00
  0.14698E+00  0.63485E+02    0.75000E-01  0.75000E-01 -0.15000E+00  0.00000E+00  0.00000E+00  0.00000E+00    0.23584E+02  0.17915E+02 -0.41499E+02  0.62871E+01 -0.92020E+00  0.18369E+01      982.00
  0.17150E+00  0.63513E+02    0.87500E-01  0.87500E-01 -0.17500E+00  0.00000E+00  0.00000E+00  0.00000E+00    0.23949E+02  0.17574E+02 -0.41524E+02  0.59860E+01 -0.80100E+00  0.21998E+01      982.00
  0.19601E+00  0.63551E+02    0.10000E+00  0.10000E+00 -0.20000E+00  0.00000E+00  0.00000E+00  0.00000E+00    0.24260E+02  0.17290E+02 -0.41549E+02  0.56978E+01 -0.68890E+00  0.25333E+01      982.00
  0.22053E+00  0.63629E+02    0.11250E+00  0.11250E+00 -0.22500E+00  0.00000E+00  0.00000E+00  0.00000E+00    0.24521E+02  0.17075E+02 -0.41597E+02  0.54426E+01 -0.58534E+00  0.28328E+01      982.00
  0.24504E+00  0.63753E+02    0.12500E+00  0.12500E+00 -0.25000E+00  0.00000E+00  0.00000E+00  0.00000E+00    0.24731E+02  0.16939E+02 -0.41670E+02  0.52516E+01 -0.50934E+00  0.30845E+01      982.00
  0.26955E+00  0.63937E+02    0.13750E+00  0.13750E+00 -0.27500E+00  0.00000E+00  0.00000E+00  0.00000E+00    0.24912E+02  0.16869E+02 -0.41782E+02  0.51021E+01 -0.43982E+00  0.33105E+01      982.00
  0.29406E+00  0.64160E+02    0.15000E+00  0.15000E+00 -0.30000E+00  0.00000E+00  0.00000E+00  0.00000E+00    0.25066E+02  0.16852E+02 -0.41918E+02  0.50036E+01 -0.39113E+00  0.35058E+01      982.00
  0.31856E+00  0.64400E+02    0.16250E+00  0.16250E+00 -0.32500E+00  0.00000E+00  0.00000E+00  0.00000E+00    0.25193E+02  0.16872E+02 -0.42066E+02  0.49330E+01 -0.34670E+00  0.36799E+01      982.00
  0.34306E+00  0.64663E+02    0.17500E+00  0.17500E+00 -0.35000E+00  0.00000E+00  0.00000E+00  0.00000E+00    0.25307E+02  0.16920E+02 -0.42228E+02  0.48959E+01 -0.31710E+00  0.38385E+01      982.00
  0.36754E+00  0.64935E+02    0.18750E+00  0.18750E+00 -0.37500E+00  0.00000E+00  0.00000E+00  0.00000E+00    0.25408E+02  0.16987E+02 -0.42395E+02  0.48796E+01 -0.29455E+00  0.39846E+01      982.00
  0.39203E+00  0.65192E+02    0.20000E+00  0.20000E+00 -0.40000E+00  0.00000E+00  0.00000E+00  0.00000E+00    0.25487E+02  0.17066E+02 -0.42554E+02  0.48726E+01 -0.26856E+00  0.41245E+01      982.00
  0.41651E+00  0.65438E+02    0.21250E+00  0.21250E+00 -0.42500E+00  0.00000E+00  0.00000E+00  0.00000E+00    0.25556E+02  0.17149E+02 -0.42705E+02  0.48802E+01 -0.25509E+00  0.42503E+01      982.00
  0.44098E+00  0.65670E+02    0.22500E+00  0.22500E+00 -0.45000E+00  0.00000E+00  0.00000E+00  0.00000E+00    0.25613E+02  0.17234E+02 -0.42847E+02  0.48948E+01 -0.24561E+00  0.43681E+01      982.00
  0.46544E+00  0.65864E+02    0.23750E+00  0.23750E+00 -0.47500E+00  0.00000E+00  0.00000E+00  0.00000E+00    0.25649E+02  0.17315E+02 -0.42965E+02  0.49083E+01 -0.23064E+00  0.44775E+01      982.00
  0.48991E+00  0.66069E+02    0.25000E+00  0.25000E+00 -0.50000E+00  0.00000E+00  0.00000E+00  0.00000E+00    0.25688E+02  0.17401E+02 -0.43089E+02  0.49320E+01 -0.22661E+00  0.45824E+01      982.00
  0.51436E+00  0.66258E+02    0.26250E+00  0.26250E+00 -0.52500E+00  0.00000E+00  0.00000E+00  0.00000E+00    0.25719E+02  0.17485E+02 -0.43203E+02  0.49578E+01 -0.22504E+00  0.46815E+01      982.00
  0.53882E+00  0.66432E+02    0.27500E+00  0.27500E+00 -0.55000E+00  0.00000E+00  0.00000E+00  0.00000E+00    0.25742E+02  0.17566E+02 -0.43308E+02  0.49848E+01 -0.22534E+00  0.47757E+01      982.00
  0.56326E+00  0.66587E+02    0.28750E+00  0.28750E+00 -0.57500E+00  0.00000E+00  0.00000E+00  0.00000E+00    0.25749E+02  0.17650E+02 -0.43399E+02  0.50156E+01 -0.21953E+00  0.48765E+01      982.00
  0.58770E+00  0.66734E+02    0.30000E+00  0.30000E+00 -0.60000E+00  0.00000E+00  0.00000E+00  0.00000E+00    0.25760E+02  0.17726E+02 -0.43486E+02  0.50438E+01 -0.22203E+00  0.49615E+01      982.00
  0.61214E+00  0.66861E+02    0.31250E+00  0.31250E+00 -0.62500E+00  0.00000E+00  0.00000E+00  0.00000E+00    0.25762E+02  0.17797E+02 -0.43560E+02  0.50728E+01 -0.22665E+00  0.50417E+01      982.00
  0.63657E+00  0.66985E+02    0.32500E+00  0.32500E+00 -0.65000E+00  0.00000E+00  0.00000E+00  0.00000E+00    0.25764E+02  0.17867E+02 -0.43632E+02  0.51007E+01 -0.23280E+00  0.51185E+01      982.00
  0.66100E+00  0.67097E+02    0.33750E+00  0.33750E+00 -0.67500E+00  0.00000E+00  0.00000E+00  0.00000E+00    0.25762E+02  0.17935E+02 -0.43697E+02  0.51282E+01 -0.23998E+00  0.51919E+01      982.00
  0.68542E+00  0.67200E+02    0.35000E+00  0.35000E+00 -0.70000E+00  0.00000E+00  0.00000E+00  0.00000E+00    0.25756E+02  0.17999E+02 -0.43756E+02  0.51552E+01 -0.24805E+00  0.52623E+01      982.00
  0.70983E+00  0.67276E+02    0.36250E+00  0.36250E+00 -0.72500E+00  0.00000E+00  0.00000E+00  0.00000E+00    0.25748E+02  0.18051E+02 -0.43798E+02  0.51767E+01 -0.25371E+00  0.53181E+01      982.00
  0.73425E+00  0.67364E+02    0.37500E+00  0.37500E+00 -0.75000E+00  0.00000E+00  0.00000E+00  0.00000E+00    0.25737E+02  0.18111E+02 -0.43848E+02  0.52025E+01 -0.26338E+00  0.53832E+01      982.00
  0.75866E+00  0.67437E+02    0.38750E+00  0.38750E+00 -0.77500E+00  0.00000E+00  0.00000E+00  0.00000E+00    0.25710E+02  0.18175E+02 -0.43885E+02  0.52381E+01 -0.26818E+00  0.54572E+01      982.00
  0.78306E+00  0.67516E+02    0.40000E+00  0.40000E+00 -0.80000E+00  0.00000E+00  0.00000E+00  0.00000E+00    0.25697E+02  0.18232E+02 -0.43929E+02  0.52635E+01 -0.27883E+00  0.55168E+01      982.00
  0.80746E+00  0.67584E+02    0.41250E+00  0.41250E+00 -0.82500E+00  0.00000E+00  0.00000E+00  0.00000E+00    0.25680E+02  0.18286E+02 -0.43966E+02  0.52877E+01 -0.29051E+00  0.55731E+01      982.00
  0.83185E+00  0.67648E+02    0.42500E+00  0.42500E+00 -0.85000E+00  0.00000E+00  0.00000E+00  0.00000E+00    0.25663E+02  0.18338E+02 -0.44000E+02  0.53113E+01 -0.30293E+00  0.56272E+01      982.00
  0.85625E+00  0.67706E+02    0.43750E+00  0.43750E+00 -0.87500E+00  0.00000E+00  0.00000E+00  0.00000E+00    0.25644E+02  0.18388E+02 -0.44031E+02  0.53343E+01 -0.31580E+00  0.56792E+01      982.00
  0.88063E+00  0.67760E+02    0.45000E+00  0.45000E+00 -0.90000E+00  0.00000E+00  0.00000E+00  0.00000E+00    0.25624E+02  0.18436E+02 -0.44060E+02  0.53567E+01 -0.32904E+00  0.57293E+01      982.00
  0.90502E+00  0.67759E+02    0.46250E+00  0.46250E+00 -0.92500E+00  0.00000E+00  0.00000E+00  0.00000E+00    0.25584E+02  0.18473E+02 -0.44058E+02  0.53204E+01 -0.34722E+00  0.57943E+01      982.00
  0.92940E+00  0.67745E+02    0.47500E+00  0.47500E+00 -0.95000E+00  0.00000E+00  0.00000E+00  0.00000E+00    0.25550E+02  0.18496E+02 -0.44046E+02  0.53086E+01 -0.36017E+00  0.58300E+01      982.00
  0.95378E+00  0.67734E+02    0.48750E+00  0.48750E+00 -0.97500E+00  0.00000E+00  0.00000E+00  0.00000E+00    0.25516E+02  0.18520E+02 -0.44036E+02  0.53026E+01 -0.37309E+00  0.58661E+01      982.00
  0.97816E+00  0.67723E+02    0.50000E+00  0.50000E+00 -0.10000E+01  0.00000E+00  0.00000E+00  0.00000E+00    0.25483E+02  0.18544E+02 -0.44026E+02  0.52985E+01 -0.38654E+00  0.59004E+01      982.00
