          Evm          Svm            E11          E22          E33          E23          E13          E12         SDEV11       SDEV22       SDEV33       SDEV23       SDEV13       SDEV12      TEMP
  0.00000E+00  0.54170E+02    0.00000E+00  0.00000E+00  0.00000E+00  0.00000E+00  0.00000E+00  0.00000E+00    0.12854E+02  0.20128E+02 -0.32982E+02 -0.68063E+01 -0.57290E+01 -0.83619E+01      982.00
  0.22832E-01  0.54607E+02    0.12500E-01  0.12500E-01 -0.25000E-01  0.00000E+00  0.00000E+00  0.00000E+00    0.13129E+02  0.20120E+02 -0.33250E+02 -0.68247E+01 -0.58215E+01 -0.84936E+01      982.00
  0.45665E-01  0.55015E+02    0.25000E-01  0.25000E-01 -0.50000E-01  0.00000E+00  0.00000E+00  0.00000E+00    0.13351E+02  0.20165E+02 -0.33517E+02 -0.68187E+01 -0.58652E+01 -0.85933E+01      982.00
  0.68511E-01  0.55407E+02    0.37500E-01  0.37500E-01 -0.75000E-01  0.00000E+00  0.00000E+00  0.00000E+00    0.13552E+02  0.20233E+02 -0.33785E+02 -0.67958E+01 -0.58821E+01 -0.86780E+01      982.00
  0.91377E-01  0.55801E+02    0.50000E-01  0.50000E-01 -0.10000E+00  0.00000E+00  0.00000E+00  0.00000E+00    0.13730E+02  0.20329E+02 -0.34059E+02 -0.67625E+01 -0.58774E+01 -0.87599E+01      982.00
  0.11427E+00  0.56187E+02    0.62500E-01  0.62500E-01 -0.12500E+00  0.00000E+00  0.00000E+00  0.00000E+00    0.13895E+02  0.20439E+02 -0.34334E+02 -0.67178E+01 -0.58572E+01 -0.88362E+01      982.00
  0.13718E+00  0.56633E+02    0.75000E-01  0.75000E-01 -0.15000E+00  0.00000E+00  0.00000E+00  0.00000E+00    0.14063E+02  0.20576E+02 -0.34639E+02 -0.66709E+01 -0.58373E+01 -0.89470E+01      982.00
  0.16012E+00  0.57043E+02    0.87500E-01  0.87500E-01 -0.17500E+00  0.00000E+00  0.00000E+00  0.00000E+00    0.14211E+02  0.20723E+02 -0.34934E+02 -0.66107E+01 -0.57934E+01 -0.90277E+01      982.00
  0.18308E+00  0.57472E+02    0.10000E+00  0.10000E+00 -0.20000E+00  0.00000E+00  0.00000E+00  0.00000E+00    0.14355E+02  0.20884E+02 -0.35239E+02 -0.65512E+01 -0.57464E+01 -0.91154E+01      982.00
  0.20608E+00  0.57870E+02    0.11250E+00  0.11250E+00 -0.22500E+00  0.00000E+00  0.00000E+00  0.00000E+00    0.14500E+02  0.21028E+02 -0.35529E+02 -0.64912E+01 -0.56994E+01 -0.91822E+01      982.00
  0.22910E+00  0.58377E+02    0.12500E+00  0.12500E+00 -0.25000E+00  0.00000E+00  0.00000E+00  0.00000E+00    0.14665E+02  0.21210E+02 -0.35875E+02 -0.64330E+01 -0.56579E+01 -0.93056E+01      982.00
  0.25214E+00  0.58832E+02    0.13750E+00  0.13750E+00 -0.27500E+00  0.00000E+00  0.00000E+00  0.00000E+00    0.14833E+02  0.21365E+02 -0.36198E+02 -0.63677E+01 -0.56108E+01 -0.93965E+01      982.00
  0.27522E+00  0.59300E+02    0.15000E+00  0.15000E+00 -0.30000E+00  0.00000E+00  0.00000E+00  0.00000E+00    0.15015E+02  0.21513E+02 -0.36528E+02 -0.63075E+01 -0.55695E+01 -0.94898E+01      982.00
  0.29832E+00  0.59770E+02    0.16250E+00  0.16250E+00 -0.32500E+00  0.00000E+00  0.00000E+00  0.00000E+00    0.15212E+02  0.21649E+02 -0.36861E+02 -0.62502E+01 -0.55314E+01 -0.95808E+01      982.00
  0.32144E+00  0.60206E+02    0.17500E+00  0.17500E+00 -0.35000E+00  0.00000E+00  0.00000E+00  0.00000E+00    0.15405E+02  0.21767E+02 -0.37171E+02 -0.61973E+01 -0.54909E+01 -0.96588E+01      982.00
  0.34460E+00  0.60673E+02    0.18750E+00  0.18750E+00 -0.37500E+00  0.00000E+00  0.00000E+00  0.00000E+00    0.15624E+02  0.21878E+02 -0.37502E+02 -0.61486E+01 -0.54563E+01 -0.97425E+01      982.00
  0.36777E+00  0.61111E+02    0.20000E+00  0.20000E+00 -0.40000E+00  0.00000E+00  0.00000E+00  0.00000E+00    0.15836E+02  0.21977E+02 -0.37814E+02 -0.61081E+01 -0.54203E+01 -0.98157E+01      982.00
  0.39098E+00  0.61555E+02    0.21250E+00  0.21250E+00 -0.42500E+00  0.00000E+00  0.00000E+00  0.00000E+00    0.16062E+02  0.22068E+02 -0.38130E+02 -0.60694E+01 -0.53833E+01 -0.98865E+01      982.00
  0.41421E+00  0.61992E+02    0.22500E+00  0.22500E+00 -0.45000E+00  0.00000E+00  0.00000E+00  0.00000E+00    0.16307E+02  0.22137E+02 -0.38444E+02 -0.60325E+01 -0.53492E+01 -0.99502E+01      982.00
  0.43746E+00  0.62413E+02    0.23750E+00  0.23750E+00 -0.47500E+00  0.00000E+00  0.00000E+00  0.00000E+00    0.16560E+02  0.22190E+02 -0.38750E+02 -0.59992E+01 -0.53147E+01 -0.10005E+02      982.00
  0.46075E+00  0.62817E+02    0.25000E+00  0.25000E+00 -0.50000E+00  0.00000E+00  0.00000E+00  0.00000E+00    0.16819E+02  0.22228E+02 -0.39047E+02 -0.59680E+01 -0.52788E+01 -0.10051E+02      982.00
  0.48406E+00  0.63204E+02    0.26250E+00  0.26250E+00 -0.52500E+00  0.00000E+00  0.00000E+00  0.00000E+00    0.17082E+02  0.22251E+02 -0.39333E+02 -0.59412E+01 -0.52427E+01 -0.10089E+02      982.00
  0.50739E+00  0.63572E+02    0.27500E+00  0.27500E+00 -0.55000E+00  0.00000E+00  0.00000E+00  0.00000E+00    0.17349E+02  0.22260E+02 -0.39608E+02 -0.59172E+01 -0.52055E+01 -0.10118E+02      982.00
  0.53076E+00  0.63920E+02    0.28750E+00  0.28750E+00 -0.57500E+00  0.00000E+00  0.00000E+00  0.00000E+00    0.17617E+02  0.22255E+02 -0.39872E+02 -0.58955E+01 -0.51670E+01 -0.10138E+02      982.00
  0.55415E+00  0.64250E+02    0.30000E+00  0.30000E+00 -0.60000E+00  0.00000E+00  0.00000E+00  0.00000E+00    0.17885E+02  0.22238E+02 -0.40124E+02 -0.58761E+01 -0.51269E+01 -0.10150E+02      982.00
  0.57757E+00  0.64560E+02    0.31250E+00  0.31250E+00 -0.62500E+00  0.00000E+00  0.00000E+00  0.00000E+00    0.18153E+02  0.22211E+02 -0.40364E+02 -0.58584E+01 -0.50855E+01 -0.10154E+02      982.00
  0.60101E+00  0.64852E+02    0.32500E+00  0.32500E+00 -0.65000E+00  0.00000E+00  0.00000E+00  0.00000E+00    0.18420E+02  0.22173E+02 -0.40592E+02 -0.58423E+01 -0.50428E+01 -0.10150E+02      982.00
  0.62449E+00  0.65108E+02    0.33750E+00  0.33750E+00 -0.67500E+00  0.00000E+00  0.00000E+00  0.00000E+00    0.18683E+02  0.22114E+02 -0.40798E+02 -0.58269E+01 -0.50021E+01 -0.10136E+02      982.00
  0.64798E+00  0.65365E+02    0.35000E+00  0.35000E+00 -0.70000E+00  0.00000E+00  0.00000E+00  0.00000E+00    0.18944E+02  0.22060E+02 -0.41004E+02 -0.58134E+01 -0.49569E+01 -0.10119E+02      982.00
  0.67151E+00  0.65606E+02    0.36250E+00  0.36250E+00 -0.72500E+00  0.00000E+00  0.00000E+00  0.00000E+00    0.19201E+02  0.21999E+02 -0.41199E+02 -0.58012E+01 -0.49104E+01 -0.10097E+02      982.00
  0.69506E+00  0.65830E+02    0.37500E+00  0.37500E+00 -0.75000E+00  0.00000E+00  0.00000E+00  0.00000E+00    0.19453E+02  0.21931E+02 -0.41384E+02 -0.57902E+01 -0.48630E+01 -0.10068E+02      982.00
  0.71863E+00  0.66039E+02    0.38750E+00  0.38750E+00 -0.77500E+00  0.00000E+00  0.00000E+00  0.00000E+00    0.19701E+02  0.21857E+02 -0.41558E+02 -0.57801E+01 -0.48148E+01 -0.10035E+02      982.00
  0.74223E+00  0.66229E+02    0.40000E+00  0.40000E+00 -0.80000E+00  0.00000E+00  0.00000E+00  0.00000E+00    0.19970E+02  0.21755E+02 -0.41724E+02 -0.57696E+01 -0.47628E+01 -0.99818E+01      982.00
  0.76585E+00  0.66409E+02    0.41250E+00  0.41250E+00 -0.82500E+00  0.00000E+00  0.00000E+00  0.00000E+00    0.20207E+02  0.21671E+02 -0.41878E+02 -0.57611E+01 -0.47132E+01 -0.99384E+01      982.00
  0.78950E+00  0.66576E+02    0.42500E+00  0.42500E+00 -0.85000E+00  0.00000E+00  0.00000E+00  0.00000E+00    0.20439E+02  0.21584E+02 -0.42023E+02 -0.57539E+01 -0.46630E+01 -0.98913E+01      982.00
  0.81317E+00  0.66731E+02    0.43750E+00  0.43750E+00 -0.87500E+00  0.00000E+00  0.00000E+00  0.00000E+00    0.20666E+02  0.21493E+02 -0.42159E+02 -0.57476E+01 -0.46126E+01 -0.98406E+01      982.00
  0.83686E+00  0.66875E+02    0.45000E+00  0.45000E+00 -0.90000E+00  0.00000E+00  0.00000E+00  0.00000E+00    0.20889E+02  0.21398E+02 -0.42287E+02 -0.57421E+01 -0.45622E+01 -0.97864E+01      982.00
  0.86058E+00  0.67009E+02    0.46250E+00  0.46250E+00 -0.92500E+00  0.00000E+00  0.00000E+00  0.00000E+00    0.21106E+02  0.21301E+02 -0.42407E+02 -0.57375E+01 -0.45119E+01 -0.97290E+01      982.00
  0.88431E+00  0.67054E+02    0.47500E+00  0.47500E+00 -0.95000E+00  0.00000E+00  0.00000E+00  0.00000E+00    0.21278E+02  0.21204E+02 -0.42482E+02 -0.56941E+01 -0.44301E+01 -0.96517E+01      982.00
  0.90807E+00  0.67116E+02    0.48750E+00  0.48750E+00 -0.97500E+00  0.00000E+00  0.00000E+00  0.00000E+00    0.21435E+02  0.21120E+02 -0.42555E+02 -0.56709E+01 -0.43707E+01 -0.95960E+01      982.00
  0.93184E+00  0.67164E+02    0.50000E+00  0.50000E+00 -0.10000E+01  0.00000E+00  0.00000E+00  0.00000E+00    0.21606E+02  0.21017E+02 -0.42623E+02 -0.56433E+01 -0.43049E+01 -0.95232E+01      982.00
