          Evm          Svm            E11          E22          E33          E23          E13          E12         SDEV11       SDEV22       SDEV33       SDEV23       SDEV13       SDEV12      TEMP
  0.00000E+00  0.56415E+02    0.00000E+00  0.00000E+00  0.00000E+00  0.00000E+00  0.00000E+00  0.00000E+00    0.18313E+02  0.15152E+02 -0.33465E+02 -0.16119E+01  0.52945E+01  0.13705E+02      982.00
  0.22245E-01  0.56376E+02    0.12500E-01  0.12500E-01 -0.25000E-01  0.00000E+00  0.00000E+00  0.00000E+00    0.18025E+02  0.15455E+02 -0.33480E+02 -0.18007E+01  0.48586E+01  0.13792E+02      982.00
  0.44515E-01  0.56466E+02    0.25000E-01  0.25000E-01 -0.50000E-01  0.00000E+00  0.00000E+00  0.00000E+00    0.17849E+02  0.15689E+02 -0.33538E+02 -0.19409E+01  0.45081E+01  0.13926E+02      982.00
  0.66788E-01  0.56677E+02    0.37500E-01  0.37500E-01 -0.75000E-01  0.00000E+00  0.00000E+00  0.00000E+00    0.17751E+02  0.15890E+02 -0.33641E+02 -0.20538E+01  0.42045E+01  0.14114E+02      982.00
  0.89047E-01  0.56986E+02    0.50000E-01  0.50000E-01 -0.10000E+00  0.00000E+00  0.00000E+00  0.00000E+00    0.17715E+02  0.16067E+02 -0.33782E+02 -0.21440E+01  0.39402E+01  0.14345E+02      982.00
  0.11128E+00  0.57370E+02    0.62500E-01  0.62500E-01 -0.12500E+00  0.00000E+00  0.00000E+00  0.00000E+00    0.17720E+02  0.16232E+02 -0.33951E+02 -0.22197E+01  0.37039E+01  0.14607E+02      982.00
  0.13347E+00  0.57804E+02    0.75000E-01  0.75000E-01 -0.15000E+00  0.00000E+00  0.00000E+00  0.00000E+00    0.17755E+02  0.16387E+02 -0.34142E+02 -0.22817E+01  0.34957E+01  0.14886E+02      982.00
  0.15562E+00  0.58267E+02    0.87500E-01  0.87500E-01 -0.17500E+00  0.00000E+00  0.00000E+00  0.00000E+00    0.17810E+02  0.16536E+02 -0.34347E+02 -0.23323E+01  0.33121E+01  0.15169E+02      982.00
  0.17772E+00  0.58743E+02    0.10000E+00  0.10000E+00 -0.20000E+00  0.00000E+00  0.00000E+00  0.00000E+00    0.17880E+02  0.16678E+02 -0.34558E+02 -0.23683E+01  0.31536E+01  0.15448E+02      982.00
  0.19979E+00  0.59216E+02    0.11250E+00  0.11250E+00 -0.22500E+00  0.00000E+00  0.00000E+00  0.00000E+00    0.17951E+02  0.16820E+02 -0.34771E+02 -0.24000E+01  0.30113E+01  0.15714E+02      982.00
  0.22180E+00  0.59675E+02    0.12500E+00  0.12500E+00 -0.25000E+00  0.00000E+00  0.00000E+00  0.00000E+00    0.18022E+02  0.16959E+02 -0.34981E+02 -0.24248E+01  0.28842E+01  0.15962E+02      982.00
  0.24379E+00  0.60127E+02    0.13750E+00  0.13750E+00 -0.27500E+00  0.00000E+00  0.00000E+00  0.00000E+00    0.18096E+02  0.17093E+02 -0.35189E+02 -0.24392E+01  0.27789E+01  0.16200E+02      982.00
  0.26573E+00  0.60558E+02    0.15000E+00  0.15000E+00 -0.30000E+00  0.00000E+00  0.00000E+00  0.00000E+00    0.18166E+02  0.17225E+02 -0.35391E+02 -0.24488E+01  0.26868E+01  0.16419E+02      982.00
  0.28765E+00  0.60953E+02    0.16250E+00  0.16250E+00 -0.32500E+00  0.00000E+00  0.00000E+00  0.00000E+00    0.18225E+02  0.17354E+02 -0.35580E+02 -0.24575E+01  0.25991E+01  0.16613E+02      982.00
  0.30954E+00  0.61335E+02    0.17500E+00  0.17500E+00 -0.35000E+00  0.00000E+00  0.00000E+00  0.00000E+00    0.18286E+02  0.17478E+02 -0.35764E+02 -0.24597E+01  0.25285E+01  0.16795E+02      982.00
  0.33141E+00  0.61690E+02    0.18750E+00  0.18750E+00 -0.37500E+00  0.00000E+00  0.00000E+00  0.00000E+00    0.18341E+02  0.17597E+02 -0.35939E+02 -0.24589E+01  0.24663E+01  0.16959E+02      982.00
  0.35325E+00  0.62010E+02    0.20000E+00  0.20000E+00 -0.40000E+00  0.00000E+00  0.00000E+00  0.00000E+00    0.18385E+02  0.17714E+02 -0.36099E+02 -0.24571E+01  0.24037E+01  0.17102E+02      982.00
  0.37508E+00  0.62316E+02    0.21250E+00  0.21250E+00 -0.42500E+00  0.00000E+00  0.00000E+00  0.00000E+00    0.18431E+02  0.17823E+02 -0.36255E+02 -0.24515E+01  0.23550E+01  0.17233E+02      982.00
  0.39690E+00  0.62597E+02    0.22500E+00  0.22500E+00 -0.45000E+00  0.00000E+00  0.00000E+00  0.00000E+00    0.18474E+02  0.17926E+02 -0.36400E+02 -0.24439E+01  0.23115E+01  0.17350E+02      982.00
  0.41871E+00  0.62853E+02    0.23750E+00  0.23750E+00 -0.47500E+00  0.00000E+00  0.00000E+00  0.00000E+00    0.18506E+02  0.18028E+02 -0.36534E+02 -0.24343E+01  0.22645E+01  0.17454E+02      982.00
  0.44050E+00  0.63087E+02    0.25000E+00  0.25000E+00 -0.50000E+00  0.00000E+00  0.00000E+00  0.00000E+00    0.18541E+02  0.18119E+02 -0.36660E+02 -0.24236E+01  0.22285E+01  0.17544E+02      982.00
  0.46229E+00  0.63306E+02    0.26250E+00  0.26250E+00 -0.52500E+00  0.00000E+00  0.00000E+00  0.00000E+00    0.18575E+02  0.18205E+02 -0.36780E+02 -0.24117E+01  0.21970E+01  0.17626E+02      982.00
  0.48408E+00  0.63484E+02    0.27500E+00  0.27500E+00 -0.55000E+00  0.00000E+00  0.00000E+00  0.00000E+00    0.18603E+02  0.18277E+02 -0.36880E+02 -0.23982E+01  0.21697E+01  0.17687E+02      982.00
  0.50587E+00  0.63672E+02    0.28750E+00  0.28750E+00 -0.57500E+00  0.00000E+00  0.00000E+00  0.00000E+00    0.18633E+02  0.18352E+02 -0.36986E+02 -0.23849E+01  0.21434E+01  0.17752E+02      982.00
  0.52765E+00  0.63836E+02    0.30000E+00  0.30000E+00 -0.60000E+00  0.00000E+00  0.00000E+00  0.00000E+00    0.18654E+02  0.18423E+02 -0.37077E+02 -0.23698E+01  0.21125E+01  0.17812E+02      982.00
  0.54943E+00  0.63996E+02    0.31250E+00  0.31250E+00 -0.62500E+00  0.00000E+00  0.00000E+00  0.00000E+00    0.18682E+02  0.18488E+02 -0.37169E+02 -0.23561E+01  0.20899E+01  0.17863E+02      982.00
  0.57121E+00  0.64155E+02    0.32500E+00  0.32500E+00 -0.65000E+00  0.00000E+00  0.00000E+00  0.00000E+00    0.18705E+02  0.18555E+02 -0.37260E+02 -0.23374E+01  0.20604E+01  0.17917E+02      982.00
  0.59299E+00  0.64289E+02    0.33750E+00  0.33750E+00 -0.67500E+00  0.00000E+00  0.00000E+00  0.00000E+00    0.18731E+02  0.18609E+02 -0.37340E+02 -0.23230E+01  0.20403E+01  0.17956E+02      982.00
  0.61477E+00  0.64412E+02    0.35000E+00  0.35000E+00 -0.70000E+00  0.00000E+00  0.00000E+00  0.00000E+00    0.18757E+02  0.18658E+02 -0.37415E+02 -0.23089E+01  0.20224E+01  0.17990E+02      982.00
  0.63655E+00  0.64525E+02    0.36250E+00  0.36250E+00 -0.72500E+00  0.00000E+00  0.00000E+00  0.00000E+00    0.18782E+02  0.18702E+02 -0.37484E+02 -0.22951E+01  0.20058E+01  0.18020E+02      982.00
  0.65834E+00  0.64630E+02    0.37500E+00  0.37500E+00 -0.75000E+00  0.00000E+00  0.00000E+00  0.00000E+00    0.18807E+02  0.18742E+02 -0.37549E+02 -0.22817E+01  0.19902E+01  0.18047E+02      982.00
  0.68012E+00  0.64726E+02    0.38750E+00  0.38750E+00 -0.77500E+00  0.00000E+00  0.00000E+00  0.00000E+00    0.18831E+02  0.18779E+02 -0.37610E+02 -0.22688E+01  0.19754E+01  0.18071E+02      982.00
  0.70191E+00  0.64816E+02    0.40000E+00  0.40000E+00 -0.80000E+00  0.00000E+00  0.00000E+00  0.00000E+00    0.18855E+02  0.18812E+02 -0.37667E+02 -0.22565E+01  0.19613E+01  0.18092E+02      982.00
  0.72371E+00  0.64900E+02    0.41250E+00  0.41250E+00 -0.82500E+00  0.00000E+00  0.00000E+00  0.00000E+00    0.18879E+02  0.18842E+02 -0.37721E+02 -0.22447E+01  0.19479E+01  0.18111E+02      982.00
  0.74550E+00  0.64977E+02    0.42500E+00  0.42500E+00 -0.85000E+00  0.00000E+00  0.00000E+00  0.00000E+00    0.18903E+02  0.18868E+02 -0.37771E+02 -0.22335E+01  0.19353E+01  0.18128E+02      982.00
  0.76730E+00  0.65049E+02    0.43750E+00  0.43750E+00 -0.87500E+00  0.00000E+00  0.00000E+00  0.00000E+00    0.18926E+02  0.18892E+02 -0.37818E+02 -0.22230E+01  0.19232E+01  0.18143E+02      982.00
  0.78910E+00  0.65104E+02    0.45000E+00  0.45000E+00 -0.90000E+00  0.00000E+00  0.00000E+00  0.00000E+00    0.18945E+02  0.18908E+02 -0.37853E+02 -0.22104E+01  0.19075E+01  0.18158E+02      982.00
  0.81091E+00  0.65170E+02    0.46250E+00  0.46250E+00 -0.92500E+00  0.00000E+00  0.00000E+00  0.00000E+00    0.18969E+02  0.18927E+02 -0.37896E+02 -0.22003E+01  0.18956E+01  0.18171E+02      982.00
  0.83271E+00  0.65227E+02    0.47500E+00  0.47500E+00 -0.95000E+00  0.00000E+00  0.00000E+00  0.00000E+00    0.18993E+02  0.18942E+02 -0.37935E+02 -0.21915E+01  0.18849E+01  0.18182E+02      982.00
  0.85452E+00  0.65282E+02    0.48750E+00  0.48750E+00 -0.97500E+00  0.00000E+00  0.00000E+00  0.00000E+00    0.19016E+02  0.18955E+02 -0.37971E+02 -0.21835E+01  0.18748E+01  0.18191E+02      982.00
  0.87633E+00  0.65303E+02    0.50000E+00  0.50000E+00 -0.10000E+01  0.00000E+00  0.00000E+00  0.00000E+00    0.19030E+02  0.18959E+02 -0.37989E+02 -0.21705E+01  0.18684E+01  0.18191E+02      982.00
