          Evm          Svm            E11          E22          E33          E23          E13          E12         SDEV11       SDEV22       SDEV33       SDEV23       SDEV13       SDEV12      TEMP
  0.00000E+00  0.62097E+02    0.00000E+00  0.00000E+00  0.00000E+00  0.00000E+00  0.00000E+00  0.00000E+00    0.17961E+02  0.20038E+02 -0.38000E+02  0.49033E+01 -0.56199E+01  0.12069E+02      982.00
  0.22948E-01  0.62116E+02    0.12500E-01  0.12500E-01 -0.25000E-01  0.00000E+00  0.00000E+00  0.00000E+00    0.17929E+02  0.20175E+02 -0.38104E+02  0.48916E+01 -0.54227E+01  0.11941E+02      982.00
  0.45952E-01  0.62150E+02    0.25000E-01  0.25000E-01 -0.50000E-01  0.00000E+00  0.00000E+00  0.00000E+00    0.17929E+02  0.20276E+02 -0.38205E+02  0.48502E+01 -0.52441E+01  0.11850E+02      982.00
  0.69004E-01  0.62222E+02    0.37500E-01  0.37500E-01 -0.75000E-01  0.00000E+00  0.00000E+00  0.00000E+00    0.17940E+02  0.20377E+02 -0.38316E+02  0.47982E+01 -0.50825E+01  0.11794E+02      982.00
  0.92096E-01  0.62326E+02    0.50000E-01  0.50000E-01 -0.10000E+00  0.00000E+00  0.00000E+00  0.00000E+00    0.17952E+02  0.20481E+02 -0.38432E+02  0.47383E+01 -0.49329E+01  0.11775E+02      982.00
  0.11522E+00  0.62471E+02    0.62500E-01  0.62500E-01 -0.12500E+00  0.00000E+00  0.00000E+00  0.00000E+00    0.17982E+02  0.20584E+02 -0.38566E+02  0.46762E+01 -0.48038E+01  0.11779E+02      982.00
  0.13837E+00  0.62649E+02    0.75000E-01  0.75000E-01 -0.15000E+00  0.00000E+00  0.00000E+00  0.00000E+00    0.18024E+02  0.20686E+02 -0.38710E+02  0.46152E+01 -0.46904E+01  0.11805E+02      982.00
  0.16154E+00  0.62856E+02    0.87500E-01  0.87500E-01 -0.17500E+00  0.00000E+00  0.00000E+00  0.00000E+00    0.18078E+02  0.20787E+02 -0.38865E+02  0.45573E+01 -0.45919E+01  0.11849E+02      982.00
  0.18473E+00  0.63086E+02    0.10000E+00  0.10000E+00 -0.20000E+00  0.00000E+00  0.00000E+00  0.00000E+00    0.18142E+02  0.20886E+02 -0.39028E+02  0.45043E+01 -0.45074E+01  0.11906E+02      982.00
  0.20793E+00  0.63336E+02    0.11250E+00  0.11250E+00 -0.22500E+00  0.00000E+00  0.00000E+00  0.00000E+00    0.18217E+02  0.20981E+02 -0.39198E+02  0.44570E+01 -0.44360E+01  0.11973E+02      982.00
  0.23114E+00  0.63600E+02    0.12500E+00  0.12500E+00 -0.25000E+00  0.00000E+00  0.00000E+00  0.00000E+00    0.18300E+02  0.21073E+02 -0.39373E+02  0.44156E+01 -0.43765E+01  0.12045E+02      982.00
  0.25435E+00  0.63872E+02    0.13750E+00  0.13750E+00 -0.27500E+00  0.00000E+00  0.00000E+00  0.00000E+00    0.18390E+02  0.21160E+02 -0.39551E+02  0.43799E+01 -0.43277E+01  0.12119E+02      982.00
  0.27757E+00  0.64149E+02    0.15000E+00  0.15000E+00 -0.30000E+00  0.00000E+00  0.00000E+00  0.00000E+00    0.18486E+02  0.21240E+02 -0.39726E+02  0.43455E+01 -0.42834E+01  0.12206E+02      982.00
  0.30079E+00  0.64426E+02    0.16250E+00  0.16250E+00 -0.32500E+00  0.00000E+00  0.00000E+00  0.00000E+00    0.18588E+02  0.21315E+02 -0.39904E+02  0.43204E+01 -0.42528E+01  0.12277E+02      982.00
  0.32402E+00  0.64697E+02    0.17500E+00  0.17500E+00 -0.35000E+00  0.00000E+00  0.00000E+00  0.00000E+00    0.18693E+02  0.21385E+02 -0.40078E+02  0.42991E+01 -0.42289E+01  0.12343E+02      982.00
  0.34725E+00  0.64962E+02    0.18750E+00  0.18750E+00 -0.37500E+00  0.00000E+00  0.00000E+00  0.00000E+00    0.18800E+02  0.21449E+02 -0.40249E+02  0.42807E+01 -0.42106E+01  0.12405E+02      982.00
  0.37049E+00  0.65216E+02    0.20000E+00  0.20000E+00 -0.40000E+00  0.00000E+00  0.00000E+00  0.00000E+00    0.18907E+02  0.21507E+02 -0.40413E+02  0.42643E+01 -0.41965E+01  0.12463E+02      982.00
  0.39372E+00  0.65460E+02    0.21250E+00  0.21250E+00 -0.42500E+00  0.00000E+00  0.00000E+00  0.00000E+00    0.19013E+02  0.21558E+02 -0.40571E+02  0.42495E+01 -0.41858E+01  0.12514E+02      982.00
  0.41697E+00  0.65693E+02    0.22500E+00  0.22500E+00 -0.45000E+00  0.00000E+00  0.00000E+00  0.00000E+00    0.19118E+02  0.21605E+02 -0.40723E+02  0.42361E+01 -0.41781E+01  0.12562E+02      982.00
  0.44021E+00  0.65911E+02    0.23750E+00  0.23750E+00 -0.47500E+00  0.00000E+00  0.00000E+00  0.00000E+00    0.19221E+02  0.21646E+02 -0.40866E+02  0.42226E+01 -0.41718E+01  0.12603E+02      982.00
  0.46346E+00  0.66115E+02    0.25000E+00  0.25000E+00 -0.50000E+00  0.00000E+00  0.00000E+00  0.00000E+00    0.19320E+02  0.21681E+02 -0.41001E+02  0.42094E+01 -0.41668E+01  0.12640E+02      982.00
  0.48672E+00  0.66306E+02    0.26250E+00  0.26250E+00 -0.52500E+00  0.00000E+00  0.00000E+00  0.00000E+00    0.19417E+02  0.21712E+02 -0.41128E+02  0.41962E+01 -0.41627E+01  0.12673E+02      982.00
  0.50998E+00  0.66484E+02    0.27500E+00  0.27500E+00 -0.55000E+00  0.00000E+00  0.00000E+00  0.00000E+00    0.19509E+02  0.21738E+02 -0.41247E+02  0.41830E+01 -0.41592E+01  0.12701E+02      982.00
  0.53324E+00  0.66651E+02    0.28750E+00  0.28750E+00 -0.57500E+00  0.00000E+00  0.00000E+00  0.00000E+00    0.19607E+02  0.21753E+02 -0.41360E+02  0.41682E+01 -0.41547E+01  0.12729E+02      982.00
  0.55651E+00  0.66786E+02    0.30000E+00  0.30000E+00 -0.60000E+00  0.00000E+00  0.00000E+00  0.00000E+00    0.19679E+02  0.21775E+02 -0.41454E+02  0.41548E+01 -0.41515E+01  0.12743E+02      982.00
  0.57979E+00  0.66923E+02    0.31250E+00  0.31250E+00 -0.62500E+00  0.00000E+00  0.00000E+00  0.00000E+00    0.19764E+02  0.21782E+02 -0.41545E+02  0.41429E+01 -0.41509E+01  0.12765E+02      982.00
  0.60307E+00  0.67056E+02    0.32500E+00  0.32500E+00 -0.65000E+00  0.00000E+00  0.00000E+00  0.00000E+00    0.19842E+02  0.21795E+02 -0.41637E+02  0.41293E+01 -0.41482E+01  0.12782E+02      982.00
  0.62636E+00  0.67177E+02    0.33750E+00  0.33750E+00 -0.67500E+00  0.00000E+00  0.00000E+00  0.00000E+00    0.19915E+02  0.21806E+02 -0.41721E+02  0.41157E+01 -0.41454E+01  0.12796E+02      982.00
  0.64964E+00  0.67290E+02    0.35000E+00  0.35000E+00 -0.70000E+00  0.00000E+00  0.00000E+00  0.00000E+00    0.19984E+02  0.21816E+02 -0.41800E+02  0.41022E+01 -0.41426E+01  0.12809E+02      982.00
  0.67294E+00  0.67400E+02    0.36250E+00  0.36250E+00 -0.72500E+00  0.00000E+00  0.00000E+00  0.00000E+00    0.20061E+02  0.21815E+02 -0.41876E+02  0.40863E+01 -0.41389E+01  0.12824E+02      982.00
  0.69624E+00  0.67495E+02    0.37500E+00  0.37500E+00 -0.75000E+00  0.00000E+00  0.00000E+00  0.00000E+00    0.20123E+02  0.21820E+02 -0.41943E+02  0.40723E+01 -0.41358E+01  0.12833E+02      982.00
  0.71954E+00  0.67582E+02    0.38750E+00  0.38750E+00 -0.77500E+00  0.00000E+00  0.00000E+00  0.00000E+00    0.20181E+02  0.21824E+02 -0.42005E+02  0.40591E+01 -0.41327E+01  0.12841E+02      982.00
  0.74285E+00  0.67662E+02    0.40000E+00  0.40000E+00 -0.80000E+00  0.00000E+00  0.00000E+00  0.00000E+00    0.20234E+02  0.21828E+02 -0.42062E+02  0.40464E+01 -0.41298E+01  0.12848E+02      982.00
  0.76616E+00  0.67737E+02    0.41250E+00  0.41250E+00 -0.82500E+00  0.00000E+00  0.00000E+00  0.00000E+00    0.20285E+02  0.21831E+02 -0.42115E+02  0.40341E+01 -0.41269E+01  0.12854E+02      982.00
  0.78948E+00  0.67805E+02    0.42500E+00  0.42500E+00 -0.85000E+00  0.00000E+00  0.00000E+00  0.00000E+00    0.20332E+02  0.21833E+02 -0.42165E+02  0.40223E+01 -0.41242E+01  0.12860E+02      982.00
  0.81280E+00  0.67869E+02    0.43750E+00  0.43750E+00 -0.87500E+00  0.00000E+00  0.00000E+00  0.00000E+00    0.20376E+02  0.21834E+02 -0.42210E+02  0.40111E+01 -0.41216E+01  0.12865E+02      982.00
  0.83612E+00  0.67931E+02    0.45000E+00  0.45000E+00 -0.90000E+00  0.00000E+00  0.00000E+00  0.00000E+00    0.20430E+02  0.21826E+02 -0.42256E+02  0.39935E+01 -0.41150E+01  0.12870E+02      982.00
  0.85945E+00  0.67982E+02    0.46250E+00  0.46250E+00 -0.92500E+00  0.00000E+00  0.00000E+00  0.00000E+00    0.20458E+02  0.21833E+02 -0.42292E+02  0.39893E+01 -0.41171E+01  0.12874E+02      982.00
  0.88277E+00  0.68033E+02    0.47500E+00  0.47500E+00 -0.95000E+00  0.00000E+00  0.00000E+00  0.00000E+00    0.20504E+02  0.21826E+02 -0.42330E+02  0.39741E+01 -0.41113E+01  0.12878E+02      982.00
  0.90611E+00  0.68073E+02    0.48750E+00  0.48750E+00 -0.97500E+00  0.00000E+00  0.00000E+00  0.00000E+00    0.20532E+02  0.21823E+02 -0.42355E+02  0.39684E+01 -0.41147E+01  0.12887E+02      982.00
  0.92944E+00  0.68087E+02    0.50000E+00  0.50000E+00 -0.10000E+01  0.00000E+00  0.00000E+00  0.00000E+00    0.20541E+02  0.21826E+02 -0.42367E+02  0.39529E+01 -0.40990E+01  0.12892E+02      982.00
