          Evm          Svm            E11          E22          E33          E23          E13          E12         SDEV11       SDEV22       SDEV33       SDEV23       SDEV13       SDEV12      TEMP
  0.00000E+00  0.60275E+02    0.00000E+00  0.00000E+00  0.00000E+00  0.00000E+00  0.00000E+00  0.00000E+00    0.15660E+02  0.18462E+02 -0.34122E+02  0.14631E+01 -0.17017E+01  0.18188E+02      982.00
  0.21229E-01  0.60399E+02    0.12500E-01  0.12500E-01 -0.25000E-01  0.00000E+00  0.00000E+00  0.00000E+00    0.15695E+02  0.18565E+02 -0.34260E+02  0.19547E+01 -0.22309E+01  0.18023E+02      982.00
  0.42500E-01  0.60530E+02    0.25000E-01  0.25000E-01 -0.50000E-01  0.00000E+00  0.00000E+00  0.00000E+00    0.15750E+02  0.18675E+02 -0.34424E+02  0.23958E+01 -0.26976E+01  0.17815E+02      982.00
  0.63827E-01  0.60659E+02    0.37500E-01  0.37500E-01 -0.75000E-01  0.00000E+00  0.00000E+00  0.00000E+00    0.15810E+02  0.18800E+02 -0.34610E+02  0.28137E+01 -0.31289E+01  0.17555E+02      982.00
  0.85223E-01  0.60788E+02    0.50000E-01  0.50000E-01 -0.10000E+00  0.00000E+00  0.00000E+00  0.00000E+00    0.15876E+02  0.18940E+02 -0.34815E+02  0.31975E+01 -0.35122E+01  0.17255E+02      982.00
  0.10670E+00  0.60928E+02    0.62500E-01  0.62500E-01 -0.12500E+00  0.00000E+00  0.00000E+00  0.00000E+00    0.15947E+02  0.19092E+02 -0.35038E+02  0.35358E+01 -0.38372E+01  0.16939E+02      982.00
  0.12827E+00  0.61092E+02    0.75000E-01  0.75000E-01 -0.15000E+00  0.00000E+00  0.00000E+00  0.00000E+00    0.16025E+02  0.19253E+02 -0.35279E+02  0.38145E+01 -0.40932E+01  0.16635E+02      982.00
  0.14992E+00  0.61289E+02    0.87500E-01  0.87500E-01 -0.17500E+00  0.00000E+00  0.00000E+00  0.00000E+00    0.16113E+02  0.19422E+02 -0.35535E+02  0.40344E+01 -0.42853E+01  0.16360E+02      982.00
  0.17166E+00  0.61516E+02    0.10000E+00  0.10000E+00 -0.20000E+00  0.00000E+00  0.00000E+00  0.00000E+00    0.16210E+02  0.19595E+02 -0.35805E+02  0.42033E+01 -0.44252E+01  0.16118E+02      982.00
  0.19349E+00  0.61768E+02    0.11250E+00  0.11250E+00 -0.22500E+00  0.00000E+00  0.00000E+00  0.00000E+00    0.16315E+02  0.19769E+02 -0.36083E+02  0.43310E+01 -0.45253E+01  0.15906E+02      982.00
  0.21540E+00  0.62032E+02    0.12500E+00  0.12500E+00 -0.25000E+00  0.00000E+00  0.00000E+00  0.00000E+00    0.16425E+02  0.19938E+02 -0.36363E+02  0.44272E+01 -0.45966E+01  0.15721E+02      982.00
  0.23738E+00  0.62303E+02    0.13750E+00  0.13750E+00 -0.27500E+00  0.00000E+00  0.00000E+00  0.00000E+00    0.16539E+02  0.20100E+02 -0.36639E+02  0.45009E+01 -0.46488E+01  0.15557E+02      982.00
  0.25943E+00  0.62595E+02    0.15000E+00  0.15000E+00 -0.30000E+00  0.00000E+00  0.00000E+00  0.00000E+00    0.16665E+02  0.20255E+02 -0.36919E+02  0.45543E+01 -0.46848E+01  0.15422E+02      982.00
  0.28155E+00  0.62873E+02    0.16250E+00  0.16250E+00 -0.32500E+00  0.00000E+00  0.00000E+00  0.00000E+00    0.16788E+02  0.20399E+02 -0.37188E+02  0.46019E+01 -0.47173E+01  0.15291E+02      982.00
  0.30373E+00  0.63172E+02    0.17500E+00  0.17500E+00 -0.35000E+00  0.00000E+00  0.00000E+00  0.00000E+00    0.16924E+02  0.20538E+02 -0.37462E+02  0.46357E+01 -0.47397E+01  0.15180E+02      982.00
  0.32597E+00  0.63468E+02    0.18750E+00  0.18750E+00 -0.37500E+00  0.00000E+00  0.00000E+00  0.00000E+00    0.17063E+02  0.20669E+02 -0.37732E+02  0.46629E+01 -0.47582E+01  0.15077E+02      982.00
  0.34826E+00  0.63745E+02    0.20000E+00  0.20000E+00 -0.40000E+00  0.00000E+00  0.00000E+00  0.00000E+00    0.17202E+02  0.20786E+02 -0.37987E+02  0.46929E+01 -0.47806E+01  0.14971E+02      982.00
  0.37061E+00  0.64029E+02    0.21250E+00  0.21250E+00 -0.42500E+00  0.00000E+00  0.00000E+00  0.00000E+00    0.17345E+02  0.20898E+02 -0.38243E+02  0.47104E+01 -0.47937E+01  0.14879E+02      982.00
  0.39301E+00  0.64305E+02    0.22500E+00  0.22500E+00 -0.45000E+00  0.00000E+00  0.00000E+00  0.00000E+00    0.17487E+02  0.21003E+02 -0.38490E+02  0.47233E+01 -0.48040E+01  0.14791E+02      982.00
  0.41545E+00  0.64570E+02    0.23750E+00  0.23750E+00 -0.47500E+00  0.00000E+00  0.00000E+00  0.00000E+00    0.17629E+02  0.21099E+02 -0.38728E+02  0.47323E+01 -0.48121E+01  0.14708E+02      982.00
  0.43795E+00  0.64824E+02    0.25000E+00  0.25000E+00 -0.50000E+00  0.00000E+00  0.00000E+00  0.00000E+00    0.17769E+02  0.21187E+02 -0.38956E+02  0.47375E+01 -0.48180E+01  0.14627E+02      982.00
  0.46048E+00  0.65067E+02    0.26250E+00  0.26250E+00 -0.52500E+00  0.00000E+00  0.00000E+00  0.00000E+00    0.17906E+02  0.21268E+02 -0.39175E+02  0.47391E+01 -0.48216E+01  0.14550E+02      982.00
  0.48306E+00  0.65297E+02    0.27500E+00  0.27500E+00 -0.55000E+00  0.00000E+00  0.00000E+00  0.00000E+00    0.18041E+02  0.21342E+02 -0.39383E+02  0.47374E+01 -0.48230E+01  0.14475E+02      982.00
  0.50568E+00  0.65512E+02    0.28750E+00  0.28750E+00 -0.57500E+00  0.00000E+00  0.00000E+00  0.00000E+00    0.18179E+02  0.21404E+02 -0.39583E+02  0.47390E+01 -0.48278E+01  0.14393E+02      982.00
  0.52833E+00  0.65718E+02    0.30000E+00  0.30000E+00 -0.60000E+00  0.00000E+00  0.00000E+00  0.00000E+00    0.18307E+02  0.21464E+02 -0.39771E+02  0.47305E+01 -0.48244E+01  0.14324E+02      982.00
  0.55103E+00  0.65911E+02    0.31250E+00  0.31250E+00 -0.62500E+00  0.00000E+00  0.00000E+00  0.00000E+00    0.18429E+02  0.21520E+02 -0.39949E+02  0.47186E+01 -0.48185E+01  0.14259E+02      982.00
  0.57376E+00  0.66093E+02    0.32500E+00  0.32500E+00 -0.65000E+00  0.00000E+00  0.00000E+00  0.00000E+00    0.18547E+02  0.21570E+02 -0.40117E+02  0.47042E+01 -0.48106E+01  0.14196E+02      982.00
  0.59652E+00  0.66264E+02    0.33750E+00  0.33750E+00 -0.67500E+00  0.00000E+00  0.00000E+00  0.00000E+00    0.18660E+02  0.21616E+02 -0.40276E+02  0.46877E+01 -0.48011E+01  0.14136E+02      982.00
  0.61931E+00  0.66426E+02    0.35000E+00  0.35000E+00 -0.70000E+00  0.00000E+00  0.00000E+00  0.00000E+00    0.18781E+02  0.21650E+02 -0.40431E+02  0.46710E+01 -0.47914E+01  0.14071E+02      982.00
  0.64214E+00  0.66575E+02    0.36250E+00  0.36250E+00 -0.72500E+00  0.00000E+00  0.00000E+00  0.00000E+00    0.18885E+02  0.21686E+02 -0.40571E+02  0.46500E+01 -0.47783E+01  0.14017E+02      982.00
  0.66499E+00  0.66713E+02    0.37500E+00  0.37500E+00 -0.75000E+00  0.00000E+00  0.00000E+00  0.00000E+00    0.18983E+02  0.21719E+02 -0.40703E+02  0.46273E+01 -0.47636E+01  0.13966E+02      982.00
  0.68787E+00  0.66843E+02    0.38750E+00  0.38750E+00 -0.77500E+00  0.00000E+00  0.00000E+00  0.00000E+00    0.19076E+02  0.21750E+02 -0.40827E+02  0.46035E+01 -0.47480E+01  0.13917E+02      982.00
  0.71077E+00  0.66964E+02    0.40000E+00  0.40000E+00 -0.80000E+00  0.00000E+00  0.00000E+00  0.00000E+00    0.19165E+02  0.21778E+02 -0.40943E+02  0.45791E+01 -0.47316E+01  0.13871E+02      982.00
  0.73370E+00  0.67077E+02    0.41250E+00  0.41250E+00 -0.82500E+00  0.00000E+00  0.00000E+00  0.00000E+00    0.19249E+02  0.21804E+02 -0.41052E+02  0.45541E+01 -0.47147E+01  0.13827E+02      982.00
  0.75665E+00  0.67182E+02    0.42500E+00  0.42500E+00 -0.85000E+00  0.00000E+00  0.00000E+00  0.00000E+00    0.19328E+02  0.21827E+02 -0.41155E+02  0.45289E+01 -0.46973E+01  0.13785E+02      982.00
  0.77962E+00  0.67280E+02    0.43750E+00  0.43750E+00 -0.87500E+00  0.00000E+00  0.00000E+00  0.00000E+00    0.19403E+02  0.21848E+02 -0.41251E+02  0.45036E+01 -0.46796E+01  0.13746E+02      982.00
  0.80262E+00  0.67371E+02    0.45000E+00  0.45000E+00 -0.90000E+00  0.00000E+00  0.00000E+00  0.00000E+00    0.19474E+02  0.21867E+02 -0.41341E+02  0.44784E+01 -0.46617E+01  0.13708E+02      982.00
  0.82563E+00  0.67456E+02    0.46250E+00  0.46250E+00 -0.92500E+00  0.00000E+00  0.00000E+00  0.00000E+00    0.19542E+02  0.21884E+02 -0.41426E+02  0.44534E+01 -0.46439E+01  0.13672E+02      982.00
  0.84866E+00  0.67535E+02    0.47500E+00  0.47500E+00 -0.95000E+00  0.00000E+00  0.00000E+00  0.00000E+00    0.19598E+02  0.21906E+02 -0.41505E+02  0.44359E+01 -0.46315E+01  0.13635E+02      982.00
  0.87170E+00  0.67609E+02    0.48750E+00  0.48750E+00 -0.97500E+00  0.00000E+00  0.00000E+00  0.00000E+00    0.19665E+02  0.21915E+02 -0.41580E+02  0.44061E+01 -0.46092E+01  0.13604E+02      982.00
  0.89477E+00  0.67675E+02    0.50000E+00  0.50000E+00 -0.10000E+01  0.00000E+00  0.00000E+00  0.00000E+00    0.19710E+02  0.21933E+02 -0.41643E+02  0.43925E+01 -0.46007E+01  0.13576E+02      982.00
