          Evm          Svm            E11          E22          E33          E23          E13          E12         SDEV11       SDEV22       SDEV33       SDEV23       SDEV13       SDEV12      TEMP
  0.00000E+00  0.57151E+02    0.00000E+00  0.00000E+00  0.00000E+00  0.00000E+00  0.00000E+00  0.00000E+00    0.14558E+02  0.18177E+02 -0.32736E+02  0.15167E+01  0.97171E+00  0.16688E+02      982.00
  0.21480E-01  0.57127E+02    0.12500E-01  0.12500E-01 -0.25000E-01  0.00000E+00  0.00000E+00  0.00000E+00    0.15168E+02  0.17566E+02 -0.32735E+02  0.58302E+00  0.14228E+01  0.16744E+02      982.00
  0.42968E-01  0.57131E+02    0.25000E-01  0.25000E-01 -0.50000E-01  0.00000E+00  0.00000E+00  0.00000E+00    0.15628E+02  0.17119E+02 -0.32747E+02 -0.10607E+00  0.17666E+01  0.16734E+02      982.00
  0.64462E-01  0.57203E+02    0.37500E-01  0.37500E-01 -0.75000E-01  0.00000E+00  0.00000E+00  0.00000E+00    0.15986E+02  0.16807E+02 -0.32793E+02 -0.64255E+00  0.20073E+01  0.16721E+02      982.00
  0.85960E-01  0.57351E+02    0.50000E-01  0.50000E-01 -0.10000E+00  0.00000E+00  0.00000E+00  0.00000E+00    0.16274E+02  0.16602E+02 -0.32876E+02 -0.10692E+01  0.21621E+01  0.16730E+02      982.00
  0.10746E+00  0.57581E+02    0.62500E-01  0.62500E-01 -0.12500E+00  0.00000E+00  0.00000E+00  0.00000E+00    0.16507E+02  0.16490E+02 -0.32997E+02 -0.14099E+01  0.22535E+01  0.16778E+02      982.00
  0.12895E+00  0.57882E+02    0.75000E-01  0.75000E-01 -0.15000E+00  0.00000E+00  0.00000E+00  0.00000E+00    0.16711E+02  0.16441E+02 -0.33152E+02 -0.16881E+01  0.23038E+01  0.16861E+02      982.00
  0.15042E+00  0.58225E+02    0.87500E-01  0.87500E-01 -0.17500E+00  0.00000E+00  0.00000E+00  0.00000E+00    0.16886E+02  0.16445E+02 -0.33331E+02 -0.19138E+01  0.23224E+01  0.16963E+02      982.00
  0.17189E+00  0.58604E+02    0.10000E+00  0.10000E+00 -0.20000E+00  0.00000E+00  0.00000E+00  0.00000E+00    0.17036E+02  0.16492E+02 -0.33528E+02 -0.20924E+01  0.23252E+01  0.17084E+02      982.00
  0.19335E+00  0.59004E+02    0.11250E+00  0.11250E+00 -0.22500E+00  0.00000E+00  0.00000E+00  0.00000E+00    0.17177E+02  0.16562E+02 -0.33739E+02 -0.22432E+01  0.23143E+01  0.17212E+02      982.00
  0.21479E+00  0.59416E+02    0.12500E+00  0.12500E+00 -0.25000E+00  0.00000E+00  0.00000E+00  0.00000E+00    0.17303E+02  0.16654E+02 -0.33957E+02 -0.23608E+01  0.23022E+01  0.17348E+02      982.00
  0.23622E+00  0.59818E+02    0.13750E+00  0.13750E+00 -0.27500E+00  0.00000E+00  0.00000E+00  0.00000E+00    0.17421E+02  0.16755E+02 -0.34176E+02 -0.24599E+01  0.22798E+01  0.17475E+02      982.00
  0.25765E+00  0.60228E+02    0.15000E+00  0.15000E+00 -0.30000E+00  0.00000E+00  0.00000E+00  0.00000E+00    0.17533E+02  0.16866E+02 -0.34399E+02 -0.25354E+01  0.22660E+01  0.17607E+02      982.00
  0.27906E+00  0.60627E+02    0.16250E+00  0.16250E+00 -0.32500E+00  0.00000E+00  0.00000E+00  0.00000E+00    0.17638E+02  0.16981E+02 -0.34620E+02 -0.25950E+01  0.22530E+01  0.17732E+02      982.00
  0.30048E+00  0.61000E+02    0.17500E+00  0.17500E+00 -0.35000E+00  0.00000E+00  0.00000E+00  0.00000E+00    0.17735E+02  0.17096E+02 -0.34831E+02 -0.26450E+01  0.22327E+01  0.17843E+02      982.00
  0.32189E+00  0.61365E+02    0.18750E+00  0.18750E+00 -0.37500E+00  0.00000E+00  0.00000E+00  0.00000E+00    0.17830E+02  0.17212E+02 -0.35042E+02 -0.26792E+01  0.22214E+01  0.17947E+02      982.00
  0.34330E+00  0.61709E+02    0.20000E+00  0.20000E+00 -0.40000E+00  0.00000E+00  0.00000E+00  0.00000E+00    0.17917E+02  0.17325E+02 -0.35243E+02 -0.27076E+01  0.22046E+01  0.18042E+02      982.00
  0.36472E+00  0.62031E+02    0.21250E+00  0.21250E+00 -0.42500E+00  0.00000E+00  0.00000E+00  0.00000E+00    0.18002E+02  0.17435E+02 -0.35437E+02 -0.27222E+01  0.21941E+01  0.18123E+02      982.00
  0.38614E+00  0.62342E+02    0.22500E+00  0.22500E+00 -0.45000E+00  0.00000E+00  0.00000E+00  0.00000E+00    0.18083E+02  0.17545E+02 -0.35627E+02 -0.27321E+01  0.21787E+01  0.18200E+02      982.00
  0.40757E+00  0.62622E+02    0.23750E+00  0.23750E+00 -0.47500E+00  0.00000E+00  0.00000E+00  0.00000E+00    0.18159E+02  0.17646E+02 -0.35805E+02 -0.27326E+01  0.21667E+01  0.18261E+02      982.00
  0.42901E+00  0.62877E+02    0.25000E+00  0.25000E+00 -0.50000E+00  0.00000E+00  0.00000E+00  0.00000E+00    0.18233E+02  0.17739E+02 -0.35972E+02 -0.27265E+01  0.21560E+01  0.18308E+02      982.00
  0.45047E+00  0.63111E+02    0.26250E+00  0.26250E+00 -0.52500E+00  0.00000E+00  0.00000E+00  0.00000E+00    0.18303E+02  0.17827E+02 -0.36130E+02 -0.27162E+01  0.21452E+01  0.18348E+02      982.00
  0.47194E+00  0.63328E+02    0.27500E+00  0.27500E+00 -0.55000E+00  0.00000E+00  0.00000E+00  0.00000E+00    0.18370E+02  0.17909E+02 -0.36278E+02 -0.27025E+01  0.21338E+01  0.18380E+02      982.00
  0.49342E+00  0.63541E+02    0.28750E+00  0.28750E+00 -0.57500E+00  0.00000E+00  0.00000E+00  0.00000E+00    0.18434E+02  0.17991E+02 -0.36425E+02 -0.26818E+01  0.21175E+01  0.18412E+02      982.00
  0.51492E+00  0.63712E+02    0.30000E+00  0.30000E+00 -0.60000E+00  0.00000E+00  0.00000E+00  0.00000E+00    0.18493E+02  0.18057E+02 -0.36550E+02 -0.26668E+01  0.21076E+01  0.18426E+02      982.00
  0.53643E+00  0.63881E+02    0.31250E+00  0.31250E+00 -0.62500E+00  0.00000E+00  0.00000E+00  0.00000E+00    0.18552E+02  0.18122E+02 -0.36674E+02 -0.26479E+01  0.20954E+01  0.18441E+02      982.00
  0.55796E+00  0.64037E+02    0.32500E+00  0.32500E+00 -0.65000E+00  0.00000E+00  0.00000E+00  0.00000E+00    0.18608E+02  0.18183E+02 -0.36791E+02 -0.26269E+01  0.20819E+01  0.18452E+02      982.00
  0.57950E+00  0.64181E+02    0.33750E+00  0.33750E+00 -0.67500E+00  0.00000E+00  0.00000E+00  0.00000E+00    0.18662E+02  0.18238E+02 -0.36900E+02 -0.26049E+01  0.20679E+01  0.18459E+02      982.00
  0.60106E+00  0.64313E+02    0.35000E+00  0.35000E+00 -0.70000E+00  0.00000E+00  0.00000E+00  0.00000E+00    0.18713E+02  0.18290E+02 -0.37002E+02 -0.25825E+01  0.20536E+01  0.18464E+02      982.00
  0.62264E+00  0.64422E+02    0.36250E+00  0.36250E+00 -0.72500E+00  0.00000E+00  0.00000E+00  0.00000E+00    0.18756E+02  0.18331E+02 -0.37087E+02 -0.25644E+01  0.20427E+01  0.18467E+02      982.00
  0.64423E+00  0.64537E+02    0.37500E+00  0.37500E+00 -0.75000E+00  0.00000E+00  0.00000E+00  0.00000E+00    0.18804E+02  0.18374E+02 -0.37178E+02 -0.25423E+01  0.20285E+01  0.18467E+02      982.00
  0.66583E+00  0.64642E+02    0.38750E+00  0.38750E+00 -0.77500E+00  0.00000E+00  0.00000E+00  0.00000E+00    0.18850E+02  0.18413E+02 -0.37264E+02 -0.25197E+01  0.20140E+01  0.18466E+02      982.00
  0.68745E+00  0.64740E+02    0.40000E+00  0.40000E+00 -0.80000E+00  0.00000E+00  0.00000E+00  0.00000E+00    0.18894E+02  0.18449E+02 -0.37343E+02 -0.24975E+01  0.19995E+01  0.18464E+02      982.00
  0.70908E+00  0.64830E+02    0.41250E+00  0.41250E+00 -0.82500E+00  0.00000E+00  0.00000E+00  0.00000E+00    0.18937E+02  0.18481E+02 -0.37418E+02 -0.24758E+01  0.19851E+01  0.18460E+02      982.00
  0.73072E+00  0.64913E+02    0.42500E+00  0.42500E+00 -0.85000E+00  0.00000E+00  0.00000E+00  0.00000E+00    0.18979E+02  0.18509E+02 -0.37488E+02 -0.24546E+01  0.19709E+01  0.18456E+02      982.00
  0.75238E+00  0.64991E+02    0.43750E+00  0.43750E+00 -0.87500E+00  0.00000E+00  0.00000E+00  0.00000E+00    0.19019E+02  0.18535E+02 -0.37554E+02 -0.24342E+01  0.19570E+01  0.18451E+02      982.00
  0.77405E+00  0.65063E+02    0.45000E+00  0.45000E+00 -0.90000E+00  0.00000E+00  0.00000E+00  0.00000E+00    0.19058E+02  0.18557E+02 -0.37615E+02 -0.24145E+01  0.19433E+01  0.18445E+02      982.00
  0.79573E+00  0.65130E+02    0.46250E+00  0.46250E+00 -0.92500E+00  0.00000E+00  0.00000E+00  0.00000E+00    0.19096E+02  0.18577E+02 -0.37673E+02 -0.23956E+01  0.19300E+01  0.18439E+02      982.00
  0.81742E+00  0.65192E+02    0.47500E+00  0.47500E+00 -0.95000E+00  0.00000E+00  0.00000E+00  0.00000E+00    0.19133E+02  0.18594E+02 -0.37727E+02 -0.23776E+01  0.19171E+01  0.18434E+02      982.00
  0.83912E+00  0.65250E+02    0.48750E+00  0.48750E+00 -0.97500E+00  0.00000E+00  0.00000E+00  0.00000E+00    0.19169E+02  0.18609E+02 -0.37777E+02 -0.23605E+01  0.19045E+01  0.18428E+02      982.00
  0.86083E+00  0.65304E+02    0.50000E+00  0.50000E+00 -0.10000E+01  0.00000E+00  0.00000E+00  0.00000E+00    0.19204E+02  0.18621E+02 -0.37825E+02 -0.23442E+01  0.18924E+01  0.18422E+02      982.00
