          Evm          Svm            E11          E22          E33          E23          E13          E12         SDEV11       SDEV22       SDEV33       SDEV23       SDEV13       SDEV12      TEMP
  0.00000E+00  0.60012E+02    0.00000E+00  0.00000E+00  0.00000E+00  0.00000E+00  0.00000E+00  0.00000E+00    0.12016E+02  0.24272E+02 -0.36288E+02  0.29801E+01 -0.64227E+01  0.11190E+02      982.00
  0.22675E-01  0.60245E+02    0.12500E-01  0.12500E-01 -0.25000E-01  0.00000E+00  0.00000E+00  0.00000E+00    0.12005E+02  0.24520E+02 -0.36524E+02  0.31449E+01 -0.65305E+01  0.10844E+02      982.00
  0.45410E-01  0.60401E+02    0.25000E-01  0.25000E-01 -0.50000E-01  0.00000E+00  0.00000E+00  0.00000E+00    0.12020E+02  0.24710E+02 -0.36730E+02  0.33068E+01 -0.65289E+01  0.10511E+02      982.00
  0.68214E-01  0.60552E+02    0.37500E-01  0.37500E-01 -0.75000E-01  0.00000E+00  0.00000E+00  0.00000E+00    0.12017E+02  0.24915E+02 -0.36932E+02  0.34640E+01 -0.64343E+01  0.10209E+02      982.00
  0.91086E-01  0.60724E+02    0.50000E-01  0.50000E-01 -0.10000E+00  0.00000E+00  0.00000E+00  0.00000E+00    0.11988E+02  0.25151E+02 -0.37138E+02  0.36082E+01 -0.62787E+01  0.99476E+01      982.00
  0.11402E+00  0.60923E+02    0.62500E-01  0.62500E-01 -0.12500E+00  0.00000E+00  0.00000E+00  0.00000E+00    0.11935E+02  0.25413E+02 -0.37348E+02  0.37338E+01 -0.60925E+01  0.97249E+01      982.00
  0.13701E+00  0.61146E+02    0.75000E-01  0.75000E-01 -0.15000E+00  0.00000E+00  0.00000E+00  0.00000E+00    0.11866E+02  0.25693E+02 -0.37559E+02  0.38397E+01 -0.58976E+01  0.95362E+01      982.00
  0.16004E+00  0.61394E+02    0.87500E-01  0.87500E-01 -0.17500E+00  0.00000E+00  0.00000E+00  0.00000E+00    0.11792E+02  0.25980E+02 -0.37772E+02  0.39287E+01 -0.57069E+01  0.93831E+01      982.00
  0.18312E+00  0.61668E+02    0.10000E+00  0.10000E+00 -0.20000E+00  0.00000E+00  0.00000E+00  0.00000E+00    0.11715E+02  0.26273E+02 -0.37988E+02  0.40042E+01 -0.55297E+01  0.92581E+01      982.00
  0.20622E+00  0.61957E+02    0.11250E+00  0.11250E+00 -0.22500E+00  0.00000E+00  0.00000E+00  0.00000E+00    0.11651E+02  0.26553E+02 -0.38204E+02  0.40696E+01 -0.53665E+01  0.91656E+01      982.00
  0.22934E+00  0.62262E+02    0.12500E+00  0.12500E+00 -0.25000E+00  0.00000E+00  0.00000E+00  0.00000E+00    0.11599E+02  0.26823E+02 -0.38422E+02  0.41285E+01 -0.52202E+01  0.90989E+01      982.00
  0.25248E+00  0.62578E+02    0.13750E+00  0.13750E+00 -0.27500E+00  0.00000E+00  0.00000E+00  0.00000E+00    0.11555E+02  0.27084E+02 -0.38639E+02  0.41821E+01 -0.50909E+01  0.90511E+01      982.00
  0.27563E+00  0.62902E+02    0.15000E+00  0.15000E+00 -0.30000E+00  0.00000E+00  0.00000E+00  0.00000E+00    0.11532E+02  0.27324E+02 -0.38856E+02  0.42350E+01 -0.49763E+01  0.90270E+01      982.00
  0.29880E+00  0.63225E+02    0.16250E+00  0.16250E+00 -0.32500E+00  0.00000E+00  0.00000E+00  0.00000E+00    0.11516E+02  0.27552E+02 -0.39068E+02  0.42851E+01 -0.48749E+01  0.90166E+01      982.00
  0.32197E+00  0.63538E+02    0.17500E+00  0.17500E+00 -0.35000E+00  0.00000E+00  0.00000E+00  0.00000E+00    0.11517E+02  0.27756E+02 -0.39273E+02  0.43325E+01 -0.47831E+01  0.90196E+01      982.00
  0.34515E+00  0.63859E+02    0.18750E+00  0.18750E+00 -0.37500E+00  0.00000E+00  0.00000E+00  0.00000E+00    0.11536E+02  0.27943E+02 -0.39479E+02  0.43847E+01 -0.47040E+01  0.90411E+01      982.00
  0.36833E+00  0.64158E+02    0.20000E+00  0.20000E+00 -0.40000E+00  0.00000E+00  0.00000E+00  0.00000E+00    0.11558E+02  0.28110E+02 -0.39669E+02  0.44345E+01 -0.46315E+01  0.90707E+01      982.00
  0.39152E+00  0.64474E+02    0.21250E+00  0.21250E+00 -0.42500E+00  0.00000E+00  0.00000E+00  0.00000E+00    0.11596E+02  0.28269E+02 -0.39865E+02  0.44914E+01 -0.45568E+01  0.91246E+01      982.00
  0.41471E+00  0.64761E+02    0.22500E+00  0.22500E+00 -0.45000E+00  0.00000E+00  0.00000E+00  0.00000E+00    0.11651E+02  0.28395E+02 -0.40046E+02  0.45419E+01 -0.44989E+01  0.91784E+01      982.00
  0.43790E+00  0.65033E+02    0.23750E+00  0.23750E+00 -0.47500E+00  0.00000E+00  0.00000E+00  0.00000E+00    0.11716E+02  0.28502E+02 -0.40217E+02  0.45906E+01 -0.44468E+01  0.92408E+01      982.00
  0.46109E+00  0.65289E+02    0.25000E+00  0.25000E+00 -0.50000E+00  0.00000E+00  0.00000E+00  0.00000E+00    0.11787E+02  0.28590E+02 -0.40377E+02  0.46363E+01 -0.43997E+01  0.93111E+01      982.00
  0.48428E+00  0.65520E+02    0.26250E+00  0.26250E+00 -0.52500E+00  0.00000E+00  0.00000E+00  0.00000E+00    0.11852E+02  0.28668E+02 -0.40521E+02  0.46739E+01 -0.43664E+01  0.93763E+01      982.00
  0.50747E+00  0.65746E+02    0.27500E+00  0.27500E+00 -0.55000E+00  0.00000E+00  0.00000E+00  0.00000E+00    0.11932E+02  0.28728E+02 -0.40660E+02  0.47108E+01 -0.43299E+01  0.94597E+01      982.00
  0.53066E+00  0.65959E+02    0.28750E+00  0.28750E+00 -0.57500E+00  0.00000E+00  0.00000E+00  0.00000E+00    0.12007E+02  0.28783E+02 -0.40790E+02  0.47375E+01 -0.43020E+01  0.95401E+01      982.00
  0.55385E+00  0.66149E+02    0.30000E+00  0.30000E+00 -0.60000E+00  0.00000E+00  0.00000E+00  0.00000E+00    0.12098E+02  0.28807E+02 -0.40906E+02  0.47615E+01 -0.42759E+01  0.96351E+01      982.00
  0.57704E+00  0.66328E+02    0.31250E+00  0.31250E+00 -0.62500E+00  0.00000E+00  0.00000E+00  0.00000E+00    0.12195E+02  0.28818E+02 -0.41014E+02  0.47786E+01 -0.42573E+01  0.97378E+01      982.00
  0.60023E+00  0.66492E+02    0.32500E+00  0.32500E+00 -0.65000E+00  0.00000E+00  0.00000E+00  0.00000E+00    0.12299E+02  0.28813E+02 -0.41112E+02  0.47869E+01 -0.42450E+01  0.98461E+01      982.00
  0.62342E+00  0.66641E+02    0.33750E+00  0.33750E+00 -0.67500E+00  0.00000E+00  0.00000E+00  0.00000E+00    0.12411E+02  0.28791E+02 -0.41202E+02  0.47857E+01 -0.42393E+01  0.99595E+01      982.00
  0.64660E+00  0.66778E+02    0.35000E+00  0.35000E+00 -0.70000E+00  0.00000E+00  0.00000E+00  0.00000E+00    0.12531E+02  0.28753E+02 -0.41285E+02  0.47749E+01 -0.42400E+01  0.10077E+02      982.00
  0.66978E+00  0.66902E+02    0.36250E+00  0.36250E+00 -0.72500E+00  0.00000E+00  0.00000E+00  0.00000E+00    0.12659E+02  0.28701E+02 -0.41360E+02  0.47545E+01 -0.42467E+01  0.10198E+02      982.00
  0.69297E+00  0.67016E+02    0.37500E+00  0.37500E+00 -0.75000E+00  0.00000E+00  0.00000E+00  0.00000E+00    0.12794E+02  0.28636E+02 -0.41430E+02  0.47252E+01 -0.42589E+01  0.10321E+02      982.00
  0.71615E+00  0.67120E+02    0.38750E+00  0.38750E+00 -0.77500E+00  0.00000E+00  0.00000E+00  0.00000E+00    0.12936E+02  0.28558E+02 -0.41494E+02  0.46880E+01 -0.42756E+01  0.10445E+02      982.00
  0.73933E+00  0.67216E+02    0.40000E+00  0.40000E+00 -0.80000E+00  0.00000E+00  0.00000E+00  0.00000E+00    0.13085E+02  0.28470E+02 -0.41555E+02  0.46443E+01 -0.42957E+01  0.10568E+02      982.00
  0.76252E+00  0.67304E+02    0.41250E+00  0.41250E+00 -0.82500E+00  0.00000E+00  0.00000E+00  0.00000E+00    0.13238E+02  0.28373E+02 -0.41612E+02  0.45956E+01 -0.43182E+01  0.10689E+02      982.00
  0.78570E+00  0.67386E+02    0.42500E+00  0.42500E+00 -0.85000E+00  0.00000E+00  0.00000E+00  0.00000E+00    0.13396E+02  0.28270E+02 -0.41666E+02  0.45435E+01 -0.43419E+01  0.10807E+02      982.00
  0.80889E+00  0.67463E+02    0.43750E+00  0.43750E+00 -0.87500E+00  0.00000E+00  0.00000E+00  0.00000E+00    0.13557E+02  0.28161E+02 -0.41718E+02  0.44894E+01 -0.43659E+01  0.10921E+02      982.00
  0.83208E+00  0.67535E+02    0.45000E+00  0.45000E+00 -0.90000E+00  0.00000E+00  0.00000E+00  0.00000E+00    0.13718E+02  0.28050E+02 -0.41768E+02  0.44348E+01 -0.43894E+01  0.11030E+02      982.00
  0.85527E+00  0.67603E+02    0.46250E+00  0.46250E+00 -0.92500E+00  0.00000E+00  0.00000E+00  0.00000E+00    0.13880E+02  0.27936E+02 -0.41816E+02  0.43805E+01 -0.44117E+01  0.11133E+02      982.00
  0.87846E+00  0.67667E+02    0.47500E+00  0.47500E+00 -0.95000E+00  0.00000E+00  0.00000E+00  0.00000E+00    0.14040E+02  0.27822E+02 -0.41862E+02  0.43273E+01 -0.44325E+01  0.11229E+02      982.00
  0.90166E+00  0.67728E+02    0.48750E+00  0.48750E+00 -0.97500E+00  0.00000E+00  0.00000E+00  0.00000E+00    0.14198E+02  0.27709E+02 -0.41907E+02  0.42760E+01 -0.44515E+01  0.11320E+02      982.00
  0.92487E+00  0.67744E+02    0.50000E+00  0.50000E+00 -0.10000E+01  0.00000E+00  0.00000E+00  0.00000E+00    0.14342E+02  0.27584E+02 -0.41927E+02  0.42148E+01 -0.44559E+01  0.11398E+02      982.00
