          Evm          Svm            E11          E22          E33          E23          E13          E12         SDEV11       SDEV22       SDEV33       SDEV23       SDEV13       SDEV12      TEMP
  0.00000E+00  0.61981E+02    0.00000E+00  0.00000E+00  0.00000E+00  0.00000E+00  0.00000E+00  0.00000E+00    0.21564E+02  0.17050E+02 -0.38614E+02  0.61616E+01  0.45244E+01 -0.99373E+01      982.00
  0.23362E-01  0.61911E+02    0.12500E-01  0.12500E-01 -0.25000E-01  0.00000E+00  0.00000E+00  0.00000E+00    0.21611E+02  0.17093E+02 -0.38704E+02  0.58489E+01  0.46161E+01 -0.96715E+01      982.00
  0.46806E-01  0.61913E+02    0.25000E-01  0.25000E-01 -0.50000E-01  0.00000E+00  0.00000E+00  0.00000E+00    0.21633E+02  0.17181E+02 -0.38814E+02  0.55994E+01  0.47430E+01 -0.94366E+01      982.00
  0.70315E-01  0.62005E+02    0.37500E-01  0.37500E-01 -0.75000E-01  0.00000E+00  0.00000E+00  0.00000E+00    0.21671E+02  0.17282E+02 -0.38953E+02  0.54078E+01  0.48788E+01 -0.92547E+01      982.00
  0.93873E-01  0.62151E+02    0.50000E-01  0.50000E-01 -0.10000E+00  0.00000E+00  0.00000E+00  0.00000E+00    0.21731E+02  0.17377E+02 -0.39108E+02  0.52540E+01  0.49974E+01 -0.91194E+01      982.00
  0.11747E+00  0.62351E+02    0.62500E-01  0.62500E-01 -0.12500E+00  0.00000E+00  0.00000E+00  0.00000E+00    0.21815E+02  0.17469E+02 -0.39284E+02  0.51389E+01  0.50801E+01 -0.90282E+01      982.00
  0.14110E+00  0.62591E+02    0.75000E-01  0.75000E-01 -0.15000E+00  0.00000E+00  0.00000E+00  0.00000E+00    0.21930E+02  0.17545E+02 -0.39475E+02  0.50435E+01  0.51341E+01 -0.89749E+01      982.00
  0.16475E+00  0.62876E+02    0.87500E-01  0.87500E-01 -0.17500E+00  0.00000E+00  0.00000E+00  0.00000E+00    0.22068E+02  0.17620E+02 -0.39688E+02  0.49722E+01  0.51558E+01 -0.89553E+01      982.00
  0.18842E+00  0.63194E+02    0.10000E+00  0.10000E+00 -0.20000E+00  0.00000E+00  0.00000E+00  0.00000E+00    0.22229E+02  0.17687E+02 -0.39916E+02  0.49153E+01  0.51542E+01 -0.89607E+01      982.00
  0.21210E+00  0.63538E+02    0.11250E+00  0.11250E+00 -0.22500E+00  0.00000E+00  0.00000E+00  0.00000E+00    0.22409E+02  0.17748E+02 -0.40157E+02  0.48698E+01  0.51344E+01 -0.89840E+01      982.00
  0.23581E+00  0.63900E+02    0.12500E+00  0.12500E+00 -0.25000E+00  0.00000E+00  0.00000E+00  0.00000E+00    0.22603E+02  0.17804E+02 -0.40408E+02  0.48338E+01  0.51007E+01 -0.90186E+01      982.00
  0.25952E+00  0.64274E+02    0.13750E+00  0.13750E+00 -0.27500E+00  0.00000E+00  0.00000E+00  0.00000E+00    0.22808E+02  0.17856E+02 -0.40664E+02  0.48061E+01  0.50566E+01 -0.90591E+01      982.00
  0.28324E+00  0.64649E+02    0.15000E+00  0.15000E+00 -0.30000E+00  0.00000E+00  0.00000E+00  0.00000E+00    0.23026E+02  0.17894E+02 -0.40920E+02  0.47815E+01  0.50061E+01 -0.91012E+01      982.00
  0.30698E+00  0.65027E+02    0.16250E+00  0.16250E+00 -0.32500E+00  0.00000E+00  0.00000E+00  0.00000E+00    0.23238E+02  0.17939E+02 -0.41178E+02  0.47673E+01  0.49491E+01 -0.91407E+01      982.00
  0.33073E+00  0.65397E+02    0.17500E+00  0.17500E+00 -0.35000E+00  0.00000E+00  0.00000E+00  0.00000E+00    0.23450E+02  0.17981E+02 -0.41431E+02  0.47582E+01  0.48883E+01 -0.91751E+01      982.00
  0.35448E+00  0.65755E+02    0.18750E+00  0.18750E+00 -0.37500E+00  0.00000E+00  0.00000E+00  0.00000E+00    0.23658E+02  0.18019E+02 -0.41677E+02  0.47533E+01  0.48253E+01 -0.92030E+01      982.00
  0.37825E+00  0.66101E+02    0.20000E+00  0.20000E+00 -0.40000E+00  0.00000E+00  0.00000E+00  0.00000E+00    0.23874E+02  0.18042E+02 -0.41916E+02  0.47495E+01  0.47592E+01 -0.92215E+01      982.00
  0.40203E+00  0.66427E+02    0.21250E+00  0.21250E+00 -0.42500E+00  0.00000E+00  0.00000E+00  0.00000E+00    0.24073E+02  0.18069E+02 -0.42142E+02  0.47509E+01  0.46944E+01 -0.92330E+01      982.00
  0.42582E+00  0.66716E+02    0.22500E+00  0.22500E+00 -0.45000E+00  0.00000E+00  0.00000E+00  0.00000E+00    0.24253E+02  0.18091E+02 -0.42343E+02  0.47550E+01  0.46336E+01 -0.92399E+01      982.00
  0.44962E+00  0.67018E+02    0.23750E+00  0.23750E+00 -0.47500E+00  0.00000E+00  0.00000E+00  0.00000E+00    0.24459E+02  0.18098E+02 -0.42557E+02  0.47617E+01  0.45646E+01 -0.92310E+01      982.00
  0.47344E+00  0.67286E+02    0.25000E+00  0.25000E+00 -0.50000E+00  0.00000E+00  0.00000E+00  0.00000E+00    0.24640E+02  0.18108E+02 -0.42747E+02  0.47686E+01  0.45006E+01 -0.92188E+01      982.00
  0.49726E+00  0.67536E+02    0.26250E+00  0.26250E+00 -0.52500E+00  0.00000E+00  0.00000E+00  0.00000E+00    0.24814E+02  0.18113E+02 -0.42926E+02  0.47772E+01  0.44372E+01 -0.92000E+01      982.00
  0.52109E+00  0.67767E+02    0.27500E+00  0.27500E+00 -0.55000E+00  0.00000E+00  0.00000E+00  0.00000E+00    0.24982E+02  0.18111E+02 -0.43093E+02  0.47868E+01  0.43746E+01 -0.91750E+01      982.00
  0.54494E+00  0.67981E+02    0.28750E+00  0.28750E+00 -0.57500E+00  0.00000E+00  0.00000E+00  0.00000E+00    0.25146E+02  0.18103E+02 -0.43249E+02  0.47971E+01  0.43131E+01 -0.91442E+01      982.00
  0.56880E+00  0.68178E+02    0.30000E+00  0.30000E+00 -0.60000E+00  0.00000E+00  0.00000E+00  0.00000E+00    0.25305E+02  0.18088E+02 -0.43393E+02  0.48081E+01  0.42526E+01 -0.91081E+01      982.00
  0.59267E+00  0.68360E+02    0.31250E+00  0.31250E+00 -0.62500E+00  0.00000E+00  0.00000E+00  0.00000E+00    0.25461E+02  0.18067E+02 -0.43528E+02  0.48195E+01  0.41931E+01 -0.90671E+01      982.00
  0.61654E+00  0.68526E+02    0.32500E+00  0.32500E+00 -0.65000E+00  0.00000E+00  0.00000E+00  0.00000E+00    0.25612E+02  0.18040E+02 -0.43652E+02  0.48316E+01  0.41346E+01 -0.90216E+01      982.00
  0.64043E+00  0.68680E+02    0.33750E+00  0.33750E+00 -0.67500E+00  0.00000E+00  0.00000E+00  0.00000E+00    0.25761E+02  0.18006E+02 -0.43767E+02  0.48437E+01  0.40771E+01 -0.89721E+01      982.00
  0.66433E+00  0.68821E+02    0.35000E+00  0.35000E+00 -0.70000E+00  0.00000E+00  0.00000E+00  0.00000E+00    0.25907E+02  0.17967E+02 -0.43874E+02  0.48560E+01  0.40207E+01 -0.89189E+01      982.00
  0.68824E+00  0.68950E+02    0.36250E+00  0.36250E+00 -0.72500E+00  0.00000E+00  0.00000E+00  0.00000E+00    0.26050E+02  0.17923E+02 -0.43973E+02  0.48685E+01  0.39652E+01 -0.88622E+01      982.00
  0.71215E+00  0.69068E+02    0.37500E+00  0.37500E+00 -0.75000E+00  0.00000E+00  0.00000E+00  0.00000E+00    0.26191E+02  0.17873E+02 -0.44064E+02  0.48812E+01  0.39107E+01 -0.88023E+01      982.00
  0.73608E+00  0.69177E+02    0.38750E+00  0.38750E+00 -0.77500E+00  0.00000E+00  0.00000E+00  0.00000E+00    0.26331E+02  0.17818E+02 -0.44149E+02  0.48939E+01  0.38571E+01 -0.87394E+01      982.00
  0.76001E+00  0.69276E+02    0.40000E+00  0.40000E+00 -0.80000E+00  0.00000E+00  0.00000E+00  0.00000E+00    0.26469E+02  0.17758E+02 -0.44226E+02  0.49066E+01  0.38045E+01 -0.86737E+01      982.00
  0.78395E+00  0.69362E+02    0.41250E+00  0.41250E+00 -0.82500E+00  0.00000E+00  0.00000E+00  0.00000E+00    0.26613E+02  0.17682E+02 -0.44294E+02  0.49205E+01  0.37517E+01 -0.86002E+01      982.00
  0.80790E+00  0.69445E+02    0.42500E+00  0.42500E+00 -0.85000E+00  0.00000E+00  0.00000E+00  0.00000E+00    0.26747E+02  0.17614E+02 -0.44361E+02  0.49328E+01  0.37003E+01 -0.85297E+01      982.00
  0.83185E+00  0.69522E+02    0.43750E+00  0.43750E+00 -0.87500E+00  0.00000E+00  0.00000E+00  0.00000E+00    0.26880E+02  0.17542E+02 -0.44422E+02  0.49453E+01  0.36502E+01 -0.84567E+01      982.00
  0.85581E+00  0.69593E+02    0.45000E+00  0.45000E+00 -0.90000E+00  0.00000E+00  0.00000E+00  0.00000E+00    0.27016E+02  0.17462E+02 -0.44478E+02  0.49598E+01  0.36065E+01 -0.83806E+01      982.00
  0.87978E+00  0.69601E+02    0.46250E+00  0.46250E+00 -0.92500E+00  0.00000E+00  0.00000E+00  0.00000E+00    0.27114E+02  0.17386E+02 -0.44500E+02  0.49469E+01  0.35387E+01 -0.83017E+01      982.00
  0.90375E+00  0.69607E+02    0.47500E+00  0.47500E+00 -0.95000E+00  0.00000E+00  0.00000E+00  0.00000E+00    0.27219E+02  0.17299E+02 -0.44518E+02  0.49409E+01  0.34783E+01 -0.82179E+01      982.00
  0.92774E+00  0.69612E+02    0.48750E+00  0.48750E+00 -0.97500E+00  0.00000E+00  0.00000E+00  0.00000E+00    0.27324E+02  0.17211E+02 -0.44534E+02  0.49357E+01  0.34196E+01 -0.81340E+01      982.00
  0.95173E+00  0.69615E+02    0.50000E+00  0.50000E+00 -0.10000E+01  0.00000E+00  0.00000E+00  0.00000E+00    0.27428E+02  0.17120E+02 -0.44549E+02  0.49308E+01  0.33624E+01 -0.80499E+01      982.00
