          Evm          Svm            E11          E22          E33          E23          E13          E12         SDEV11       SDEV22       SDEV33       SDEV23       SDEV13       SDEV12      TEMP
  0.00000E+00  0.54195E+02    0.00000E+00  0.00000E+00  0.00000E+00  0.00000E+00  0.00000E+00  0.00000E+00    0.19954E+02  0.13470E+02 -0.33424E+02  0.35920E+01  0.53967E+01 -0.94137E+01      982.00
  0.23128E-01  0.54684E+02    0.12500E-01  0.12500E-01 -0.25000E-01  0.00000E+00  0.00000E+00  0.00000E+00    0.19684E+02  0.13941E+02 -0.33625E+02  0.39449E+01  0.56368E+01 -0.96557E+01      982.00
  0.46186E-01  0.55124E+02    0.25000E-01  0.25000E-01 -0.50000E-01  0.00000E+00  0.00000E+00  0.00000E+00    0.19480E+02  0.14353E+02 -0.33833E+02  0.41232E+01  0.58594E+01 -0.98229E+01      982.00
  0.69202E-01  0.55550E+02    0.37500E-01  0.37500E-01 -0.75000E-01  0.00000E+00  0.00000E+00  0.00000E+00    0.19345E+02  0.14712E+02 -0.34058E+02  0.42151E+01  0.60449E+01 -0.99494E+01      982.00
  0.92193E-01  0.55960E+02    0.50000E-01  0.50000E-01 -0.10000E+00  0.00000E+00  0.00000E+00  0.00000E+00    0.19284E+02  0.15009E+02 -0.34293E+02  0.42518E+01  0.61851E+01 -0.10047E+02      982.00
  0.11517E+00  0.56371E+02    0.62500E-01  0.62500E-01 -0.12500E+00  0.00000E+00  0.00000E+00  0.00000E+00    0.19280E+02  0.15262E+02 -0.34542E+02  0.42662E+01  0.62845E+01 -0.10131E+02      982.00
  0.13815E+00  0.56787E+02    0.75000E-01  0.75000E-01 -0.15000E+00  0.00000E+00  0.00000E+00  0.00000E+00    0.19339E+02  0.15463E+02 -0.34802E+02  0.42619E+01  0.63482E+01 -0.10214E+02      982.00
  0.16113E+00  0.57223E+02    0.87500E-01  0.87500E-01 -0.17500E+00  0.00000E+00  0.00000E+00  0.00000E+00    0.19453E+02  0.15627E+02 -0.35080E+02  0.42494E+01  0.63830E+01 -0.10299E+02      982.00
  0.18412E+00  0.57684E+02    0.10000E+00  0.10000E+00 -0.20000E+00  0.00000E+00  0.00000E+00  0.00000E+00    0.19616E+02  0.15763E+02 -0.35380E+02  0.42323E+01  0.63911E+01 -0.10386E+02      982.00
  0.20712E+00  0.58136E+02    0.11250E+00  0.11250E+00 -0.22500E+00  0.00000E+00  0.00000E+00  0.00000E+00    0.19804E+02  0.15878E+02 -0.35682E+02  0.42160E+01  0.63715E+01 -0.10462E+02      982.00
  0.23014E+00  0.58575E+02    0.12500E+00  0.12500E+00 -0.25000E+00  0.00000E+00  0.00000E+00  0.00000E+00    0.19995E+02  0.15987E+02 -0.35983E+02  0.42062E+01  0.63325E+01 -0.10526E+02      982.00
  0.25318E+00  0.59054E+02    0.13750E+00  0.13750E+00 -0.27500E+00  0.00000E+00  0.00000E+00  0.00000E+00    0.20217E+02  0.16088E+02 -0.36305E+02  0.42020E+01  0.62890E+01 -0.10604E+02      982.00
  0.27623E+00  0.59525E+02    0.15000E+00  0.15000E+00 -0.30000E+00  0.00000E+00  0.00000E+00  0.00000E+00    0.20438E+02  0.16188E+02 -0.36626E+02  0.42022E+01  0.62341E+01 -0.10673E+02      982.00
  0.29930E+00  0.60026E+02    0.16250E+00  0.16250E+00 -0.32500E+00  0.00000E+00  0.00000E+00  0.00000E+00    0.20694E+02  0.16269E+02 -0.36963E+02  0.42092E+01  0.61775E+01 -0.10751E+02      982.00
  0.32240E+00  0.60515E+02    0.17500E+00  0.17500E+00 -0.35000E+00  0.00000E+00  0.00000E+00  0.00000E+00    0.20942E+02  0.16353E+02 -0.37295E+02  0.42213E+01  0.61137E+01 -0.10818E+02      982.00
  0.34551E+00  0.61005E+02    0.18750E+00  0.18750E+00 -0.37500E+00  0.00000E+00  0.00000E+00  0.00000E+00    0.21193E+02  0.16437E+02 -0.37630E+02  0.42392E+01  0.60468E+01 -0.10878E+02      982.00
  0.36864E+00  0.61489E+02    0.20000E+00  0.20000E+00 -0.40000E+00  0.00000E+00  0.00000E+00  0.00000E+00    0.21444E+02  0.16519E+02 -0.37962E+02  0.42616E+01  0.59775E+01 -0.10931E+02      982.00
  0.39179E+00  0.61967E+02    0.21250E+00  0.21250E+00 -0.42500E+00  0.00000E+00  0.00000E+00  0.00000E+00    0.21693E+02  0.16600E+02 -0.38293E+02  0.42883E+01  0.59066E+01 -0.10975E+02      982.00
  0.41496E+00  0.62429E+02    0.22500E+00  0.22500E+00 -0.45000E+00  0.00000E+00  0.00000E+00  0.00000E+00    0.21936E+02  0.16678E+02 -0.38614E+02  0.43189E+01  0.58339E+01 -0.11011E+02      982.00
  0.43816E+00  0.62876E+02    0.23750E+00  0.23750E+00 -0.47500E+00  0.00000E+00  0.00000E+00  0.00000E+00    0.22173E+02  0.16756E+02 -0.38929E+02  0.43491E+01  0.57580E+01 -0.11035E+02      982.00
  0.46138E+00  0.63310E+02    0.25000E+00  0.25000E+00 -0.50000E+00  0.00000E+00  0.00000E+00  0.00000E+00    0.22406E+02  0.16831E+02 -0.39237E+02  0.43826E+01  0.56829E+01 -0.11052E+02      982.00
  0.48462E+00  0.63729E+02    0.26250E+00  0.26250E+00 -0.52500E+00  0.00000E+00  0.00000E+00  0.00000E+00    0.22631E+02  0.16904E+02 -0.39535E+02  0.44181E+01  0.56080E+01 -0.11062E+02      982.00
  0.50788E+00  0.64129E+02    0.27500E+00  0.27500E+00 -0.55000E+00  0.00000E+00  0.00000E+00  0.00000E+00    0.22849E+02  0.16975E+02 -0.39823E+02  0.44532E+01  0.55314E+01 -0.11061E+02      982.00
  0.53117E+00  0.64514E+02    0.28750E+00  0.28750E+00 -0.57500E+00  0.00000E+00  0.00000E+00  0.00000E+00    0.23060E+02  0.17043E+02 -0.40104E+02  0.44877E+01  0.54543E+01 -0.11053E+02      982.00
  0.55448E+00  0.64880E+02    0.30000E+00  0.30000E+00 -0.60000E+00  0.00000E+00  0.00000E+00  0.00000E+00    0.23265E+02  0.17108E+02 -0.40373E+02  0.45221E+01  0.53768E+01 -0.11038E+02      982.00
  0.57781E+00  0.65216E+02    0.31250E+00  0.31250E+00 -0.62500E+00  0.00000E+00  0.00000E+00  0.00000E+00    0.23456E+02  0.17167E+02 -0.40623E+02  0.45556E+01  0.52983E+01 -0.11014E+02      982.00
  0.60117E+00  0.65547E+02    0.32500E+00  0.32500E+00 -0.65000E+00  0.00000E+00  0.00000E+00  0.00000E+00    0.23646E+02  0.17226E+02 -0.40872E+02  0.45877E+01  0.52191E+01 -0.10984E+02      982.00
  0.62456E+00  0.65846E+02    0.33750E+00  0.33750E+00 -0.67500E+00  0.00000E+00  0.00000E+00  0.00000E+00    0.23818E+02  0.17279E+02 -0.41098E+02  0.46069E+01  0.51524E+01 -0.10954E+02      982.00
  0.64796E+00  0.66138E+02    0.35000E+00  0.35000E+00 -0.70000E+00  0.00000E+00  0.00000E+00  0.00000E+00    0.23994E+02  0.17327E+02 -0.41321E+02  0.46362E+01  0.50743E+01 -0.10915E+02      982.00
  0.67139E+00  0.66410E+02    0.36250E+00  0.36250E+00 -0.72500E+00  0.00000E+00  0.00000E+00  0.00000E+00    0.24162E+02  0.17371E+02 -0.41533E+02  0.46643E+01  0.49959E+01 -0.10868E+02      982.00
  0.69484E+00  0.66672E+02    0.37500E+00  0.37500E+00 -0.75000E+00  0.00000E+00  0.00000E+00  0.00000E+00    0.24326E+02  0.17412E+02 -0.41738E+02  0.46913E+01  0.49181E+01 -0.10818E+02      982.00
  0.71832E+00  0.66919E+02    0.38750E+00  0.38750E+00 -0.77500E+00  0.00000E+00  0.00000E+00  0.00000E+00    0.24485E+02  0.17448E+02 -0.41934E+02  0.47158E+01  0.48394E+01 -0.10764E+02      982.00
  0.74182E+00  0.67143E+02    0.40000E+00  0.40000E+00 -0.80000E+00  0.00000E+00  0.00000E+00  0.00000E+00    0.24635E+02  0.17478E+02 -0.42113E+02  0.47406E+01  0.47626E+01 -0.10707E+02      982.00
  0.76534E+00  0.67356E+02    0.41250E+00  0.41250E+00 -0.82500E+00  0.00000E+00  0.00000E+00  0.00000E+00    0.24782E+02  0.17504E+02 -0.42287E+02  0.47625E+01  0.46844E+01 -0.10645E+02      982.00
  0.78888E+00  0.67559E+02    0.42500E+00  0.42500E+00 -0.85000E+00  0.00000E+00  0.00000E+00  0.00000E+00    0.24926E+02  0.17526E+02 -0.42452E+02  0.47841E+01  0.46086E+01 -0.10581E+02      982.00
  0.81244E+00  0.67758E+02    0.43750E+00  0.43750E+00 -0.87500E+00  0.00000E+00  0.00000E+00  0.00000E+00    0.25076E+02  0.17539E+02 -0.42615E+02  0.47999E+01  0.45375E+01 -0.10513E+02      982.00
  0.83603E+00  0.67931E+02    0.45000E+00  0.45000E+00 -0.90000E+00  0.00000E+00  0.00000E+00  0.00000E+00    0.25211E+02  0.17549E+02 -0.42760E+02  0.48197E+01  0.44631E+01 -0.10444E+02      982.00
  0.85963E+00  0.68016E+02    0.46250E+00  0.46250E+00 -0.92500E+00  0.00000E+00  0.00000E+00  0.00000E+00    0.25307E+02  0.17550E+02 -0.42857E+02  0.48136E+01  0.43628E+01 -0.10357E+02      982.00
  0.88326E+00  0.68108E+02    0.47500E+00  0.47500E+00 -0.95000E+00  0.00000E+00  0.00000E+00  0.00000E+00    0.25417E+02  0.17539E+02 -0.42956E+02  0.48052E+01  0.42796E+01 -0.10268E+02      982.00
  0.90691E+00  0.68189E+02    0.48750E+00  0.48750E+00 -0.97500E+00  0.00000E+00  0.00000E+00  0.00000E+00    0.25517E+02  0.17528E+02 -0.43045E+02  0.47999E+01  0.41930E+01 -0.10183E+02      982.00
  0.93059E+00  0.68269E+02    0.50000E+00  0.50000E+00 -0.10000E+01  0.00000E+00  0.00000E+00  0.00000E+00    0.25617E+02  0.17516E+02 -0.43132E+02  0.47946E+01  0.41075E+01 -0.10099E+02      982.00
