          Evm          Svm            E11          E22          E33          E23          E13          E12         SDEV11       SDEV22       SDEV33       SDEV23       SDEV13       SDEV12      TEMP
  0.00000E+00  0.58259E+02    0.00000E+00  0.00000E+00  0.00000E+00  0.00000E+00  0.00000E+00  0.00000E+00    0.22242E+02  0.14263E+02 -0.36505E+02 -0.93298E+00  0.44265E+01  0.97725E+01      982.00
  0.23498E-01  0.58283E+02    0.12500E-01  0.12500E-01 -0.25000E-01  0.00000E+00  0.00000E+00  0.00000E+00    0.21784E+02  0.14736E+02 -0.36520E+02 -0.91227E+00  0.41343E+01  0.10082E+02      982.00
  0.46996E-01  0.58411E+02    0.25000E-01  0.25000E-01 -0.50000E-01  0.00000E+00  0.00000E+00  0.00000E+00    0.21338E+02  0.15243E+02 -0.36581E+02 -0.95556E+00  0.38890E+01  0.10408E+02      982.00
  0.70481E-01  0.58609E+02    0.37500E-01  0.37500E-01 -0.75000E-01  0.00000E+00  0.00000E+00  0.00000E+00    0.20903E+02  0.15764E+02 -0.36667E+02 -0.10467E+01  0.36783E+01  0.10744E+02      982.00
  0.93941E-01  0.58858E+02    0.50000E-01  0.50000E-01 -0.10000E+00  0.00000E+00  0.00000E+00  0.00000E+00    0.20512E+02  0.16255E+02 -0.36767E+02 -0.11643E+01  0.35114E+01  0.11077E+02      982.00
  0.11737E+00  0.59156E+02    0.62500E-01  0.62500E-01 -0.12500E+00  0.00000E+00  0.00000E+00  0.00000E+00    0.20181E+02  0.16701E+02 -0.36882E+02 -0.12938E+01  0.33812E+01  0.11409E+02      982.00
  0.14075E+00  0.59503E+02    0.75000E-01  0.75000E-01 -0.15000E+00  0.00000E+00  0.00000E+00  0.00000E+00    0.19926E+02  0.17088E+02 -0.37014E+02 -0.14203E+01  0.32840E+01  0.11741E+02      982.00
  0.16407E+00  0.59891E+02    0.87500E-01  0.87500E-01 -0.17500E+00  0.00000E+00  0.00000E+00  0.00000E+00    0.19737E+02  0.17427E+02 -0.37163E+02 -0.15399E+01  0.32093E+01  0.12074E+02      982.00
  0.18734E+00  0.60308E+02    0.10000E+00  0.10000E+00 -0.20000E+00  0.00000E+00  0.00000E+00  0.00000E+00    0.19596E+02  0.17729E+02 -0.37325E+02 -0.16529E+01  0.31481E+01  0.12409E+02      982.00
  0.21055E+00  0.60744E+02    0.11250E+00  0.11250E+00 -0.22500E+00  0.00000E+00  0.00000E+00  0.00000E+00    0.19503E+02  0.17993E+02 -0.37495E+02 -0.17536E+01  0.31018E+01  0.12738E+02      982.00
  0.23370E+00  0.61190E+02    0.12500E+00  0.12500E+00 -0.25000E+00  0.00000E+00  0.00000E+00  0.00000E+00    0.19432E+02  0.18236E+02 -0.37669E+02 -0.18498E+01  0.30620E+01  0.13066E+02      982.00
  0.25678E+00  0.61638E+02    0.13750E+00  0.13750E+00 -0.27500E+00  0.00000E+00  0.00000E+00  0.00000E+00    0.19384E+02  0.18458E+02 -0.37842E+02 -0.19407E+01  0.30340E+01  0.13387E+02      982.00
  0.27981E+00  0.62084E+02    0.15000E+00  0.15000E+00 -0.30000E+00  0.00000E+00  0.00000E+00  0.00000E+00    0.19344E+02  0.18667E+02 -0.38011E+02 -0.20373E+01  0.30175E+01  0.13704E+02      982.00
  0.30277E+00  0.62514E+02    0.16250E+00  0.16250E+00 -0.32500E+00  0.00000E+00  0.00000E+00  0.00000E+00    0.19303E+02  0.18863E+02 -0.38166E+02 -0.21490E+01  0.30153E+01  0.14016E+02      982.00
  0.32566E+00  0.62907E+02    0.17500E+00  0.17500E+00 -0.35000E+00  0.00000E+00  0.00000E+00  0.00000E+00    0.19254E+02  0.19042E+02 -0.38296E+02 -0.22753E+01  0.30200E+01  0.14312E+02      982.00
  0.34849E+00  0.63247E+02    0.18750E+00  0.18750E+00 -0.37500E+00  0.00000E+00  0.00000E+00  0.00000E+00    0.19215E+02  0.19187E+02 -0.38402E+02 -0.23846E+01  0.30200E+01  0.14579E+02      982.00
  0.37126E+00  0.63540E+02    0.20000E+00  0.20000E+00 -0.40000E+00  0.00000E+00  0.00000E+00  0.00000E+00    0.19175E+02  0.19314E+02 -0.38489E+02 -0.24596E+01  0.29927E+01  0.14822E+02      982.00
  0.39397E+00  0.63801E+02    0.21250E+00  0.21250E+00 -0.42500E+00  0.00000E+00  0.00000E+00  0.00000E+00    0.19139E+02  0.19427E+02 -0.38566E+02 -0.24922E+01  0.29401E+01  0.15049E+02      982.00
  0.41664E+00  0.64045E+02    0.22500E+00  0.22500E+00 -0.45000E+00  0.00000E+00  0.00000E+00  0.00000E+00    0.19112E+02  0.19526E+02 -0.38639E+02 -0.24849E+01  0.28709E+01  0.15266E+02      982.00
  0.43927E+00  0.64273E+02    0.23750E+00  0.23750E+00 -0.47500E+00  0.00000E+00  0.00000E+00  0.00000E+00    0.19085E+02  0.19620E+02 -0.38706E+02 -0.24520E+01  0.27877E+01  0.15478E+02      982.00
  0.46185E+00  0.64493E+02    0.25000E+00  0.25000E+00 -0.50000E+00  0.00000E+00  0.00000E+00  0.00000E+00    0.19055E+02  0.19714E+02 -0.38769E+02 -0.24045E+01  0.26967E+01  0.15684E+02      982.00
  0.48439E+00  0.64702E+02    0.26250E+00  0.26250E+00 -0.52500E+00  0.00000E+00  0.00000E+00  0.00000E+00    0.19017E+02  0.19810E+02 -0.38827E+02 -0.23517E+01  0.26012E+01  0.15885E+02      982.00
  0.50690E+00  0.64900E+02    0.27500E+00  0.27500E+00 -0.55000E+00  0.00000E+00  0.00000E+00  0.00000E+00    0.18983E+02  0.19897E+02 -0.38880E+02 -0.22913E+01  0.25088E+01  0.16079E+02      982.00
  0.52936E+00  0.65089E+02    0.28750E+00  0.28750E+00 -0.57500E+00  0.00000E+00  0.00000E+00  0.00000E+00    0.18946E+02  0.19982E+02 -0.38928E+02 -0.22316E+01  0.24203E+01  0.16265E+02      982.00
  0.55179E+00  0.65268E+02    0.30000E+00  0.30000E+00 -0.60000E+00  0.00000E+00  0.00000E+00  0.00000E+00    0.18908E+02  0.20064E+02 -0.38972E+02 -0.21752E+01  0.23374E+01  0.16441E+02      982.00
  0.57418E+00  0.65438E+02    0.31250E+00  0.31250E+00 -0.62500E+00  0.00000E+00  0.00000E+00  0.00000E+00    0.18870E+02  0.20144E+02 -0.39014E+02 -0.21235E+01  0.22612E+01  0.16607E+02      982.00
  0.59654E+00  0.65598E+02    0.32500E+00  0.32500E+00 -0.65000E+00  0.00000E+00  0.00000E+00  0.00000E+00    0.18825E+02  0.20228E+02 -0.39053E+02 -0.20803E+01  0.21890E+01  0.16760E+02      982.00
  0.61886E+00  0.65750E+02    0.33750E+00  0.33750E+00 -0.67500E+00  0.00000E+00  0.00000E+00  0.00000E+00    0.18788E+02  0.20302E+02 -0.39090E+02 -0.20392E+01  0.21268E+01  0.16904E+02      982.00
  0.64116E+00  0.65894E+02    0.35000E+00  0.35000E+00 -0.70000E+00  0.00000E+00  0.00000E+00  0.00000E+00    0.18756E+02  0.20369E+02 -0.39125E+02 -0.20045E+01  0.20740E+01  0.17037E+02      982.00
  0.66342E+00  0.66025E+02    0.36250E+00  0.36250E+00 -0.72500E+00  0.00000E+00  0.00000E+00  0.00000E+00    0.18715E+02  0.20444E+02 -0.39159E+02 -0.19757E+01  0.20212E+01  0.17156E+02      982.00
  0.68566E+00  0.66150E+02    0.37500E+00  0.37500E+00 -0.75000E+00  0.00000E+00  0.00000E+00  0.00000E+00    0.18684E+02  0.20506E+02 -0.39191E+02 -0.19490E+01  0.19776E+01  0.17267E+02      982.00
  0.70788E+00  0.66268E+02    0.38750E+00  0.38750E+00 -0.77500E+00  0.00000E+00  0.00000E+00  0.00000E+00    0.18657E+02  0.20564E+02 -0.39221E+02 -0.19261E+01  0.19394E+01  0.17369E+02      982.00
  0.73008E+00  0.66369E+02    0.40000E+00  0.40000E+00 -0.80000E+00  0.00000E+00  0.00000E+00  0.00000E+00    0.18626E+02  0.20622E+02 -0.39248E+02 -0.19095E+01  0.19040E+01  0.17456E+02      982.00
  0.75225E+00  0.66472E+02    0.41250E+00  0.41250E+00 -0.82500E+00  0.00000E+00  0.00000E+00  0.00000E+00    0.18604E+02  0.20672E+02 -0.39276E+02 -0.18930E+01  0.18743E+01  0.17541E+02      982.00
  0.77441E+00  0.66568E+02    0.42500E+00  0.42500E+00 -0.85000E+00  0.00000E+00  0.00000E+00  0.00000E+00    0.18587E+02  0.20715E+02 -0.39301E+02 -0.18806E+01  0.18525E+01  0.17622E+02      982.00
  0.79655E+00  0.66657E+02    0.43750E+00  0.43750E+00 -0.87500E+00  0.00000E+00  0.00000E+00  0.00000E+00    0.18570E+02  0.20757E+02 -0.39327E+02 -0.18687E+01  0.18296E+01  0.17693E+02      982.00
  0.81867E+00  0.66722E+02    0.45000E+00  0.45000E+00 -0.90000E+00  0.00000E+00  0.00000E+00  0.00000E+00    0.18547E+02  0.20801E+02 -0.39349E+02 -0.18583E+01  0.18030E+01  0.17740E+02      982.00
  0.84079E+00  0.66802E+02    0.46250E+00  0.46250E+00 -0.92500E+00  0.00000E+00  0.00000E+00  0.00000E+00    0.18536E+02  0.20837E+02 -0.39373E+02 -0.18505E+01  0.17850E+01  0.17802E+02      982.00
  0.86289E+00  0.66876E+02    0.47500E+00  0.47500E+00 -0.95000E+00  0.00000E+00  0.00000E+00  0.00000E+00    0.18527E+02  0.20869E+02 -0.39396E+02 -0.18440E+01  0.17697E+01  0.17857E+02      982.00
  0.88498E+00  0.66944E+02    0.48750E+00  0.48750E+00 -0.97500E+00  0.00000E+00  0.00000E+00  0.00000E+00    0.18520E+02  0.20898E+02 -0.39417E+02 -0.18389E+01  0.17561E+01  0.17907E+02      982.00
  0.90706E+00  0.67008E+02    0.50000E+00  0.50000E+00 -0.10000E+01  0.00000E+00  0.00000E+00  0.00000E+00    0.18515E+02  0.20923E+02 -0.39438E+02 -0.18348E+01  0.17442E+01  0.17954E+02      982.00
