          Evm          Svm            E11          E22          E33          E23          E13          E12         SDEV11       SDEV22       SDEV33       SDEV23       SDEV13       SDEV12      TEMP
  0.00000E+00  0.57192E+02    0.00000E+00  0.00000E+00  0.00000E+00  0.00000E+00  0.00000E+00  0.00000E+00    0.15881E+02  0.17314E+02 -0.33194E+02 -0.41864E+01  0.87824E+00  0.15656E+02      982.00
  0.21765E-01  0.57069E+02    0.12500E-01  0.12500E-01 -0.25000E-01  0.00000E+00  0.00000E+00  0.00000E+00    0.15863E+02  0.17327E+02 -0.33190E+02 -0.39983E+01  0.11569E+01  0.15542E+02      982.00
  0.43574E-01  0.57101E+02    0.25000E-01  0.25000E-01 -0.50000E-01  0.00000E+00  0.00000E+00  0.00000E+00    0.15894E+02  0.17358E+02 -0.33251E+02 -0.38425E+01  0.13434E+01  0.15508E+02      982.00
  0.65411E-01  0.57270E+02    0.37500E-01  0.37500E-01 -0.75000E-01  0.00000E+00  0.00000E+00  0.00000E+00    0.15949E+02  0.17416E+02 -0.33366E+02 -0.36913E+01  0.14843E+01  0.15555E+02      982.00
  0.87259E-01  0.57538E+02    0.50000E-01  0.50000E-01 -0.10000E+00  0.00000E+00  0.00000E+00  0.00000E+00    0.16022E+02  0.17497E+02 -0.33518E+02 -0.35380E+01  0.15948E+01  0.15663E+02      982.00
  0.10910E+00  0.57884E+02    0.62500E-01  0.62500E-01 -0.12500E+00  0.00000E+00  0.00000E+00  0.00000E+00    0.16106E+02  0.17594E+02 -0.33700E+02 -0.34032E+01  0.16710E+01  0.15816E+02      982.00
  0.13094E+00  0.58274E+02    0.75000E-01  0.75000E-01 -0.15000E+00  0.00000E+00  0.00000E+00  0.00000E+00    0.16199E+02  0.17703E+02 -0.33902E+02 -0.32706E+01  0.17298E+01  0.15990E+02      982.00
  0.15275E+00  0.58704E+02    0.87500E-01  0.87500E-01 -0.17500E+00  0.00000E+00  0.00000E+00  0.00000E+00    0.16299E+02  0.17819E+02 -0.34118E+02 -0.31603E+01  0.17676E+01  0.16186E+02      982.00
  0.17455E+00  0.59155E+02    0.10000E+00  0.10000E+00 -0.20000E+00  0.00000E+00  0.00000E+00  0.00000E+00    0.16404E+02  0.17939E+02 -0.34343E+02 -0.30639E+01  0.17937E+01  0.16391E+02      982.00
  0.19632E+00  0.59613E+02    0.11250E+00  0.11250E+00 -0.22500E+00  0.00000E+00  0.00000E+00  0.00000E+00    0.16513E+02  0.18059E+02 -0.34572E+02 -0.29801E+01  0.18115E+01  0.16594E+02      982.00
  0.21807E+00  0.60052E+02    0.12500E+00  0.12500E+00 -0.25000E+00  0.00000E+00  0.00000E+00  0.00000E+00    0.16621E+02  0.18173E+02 -0.34794E+02 -0.28959E+01  0.18238E+01  0.16786E+02      982.00
  0.23980E+00  0.60491E+02    0.13750E+00  0.13750E+00 -0.27500E+00  0.00000E+00  0.00000E+00  0.00000E+00    0.16734E+02  0.18285E+02 -0.35018E+02 -0.28350E+01  0.18313E+01  0.16971E+02      982.00
  0.26150E+00  0.60910E+02    0.15000E+00  0.15000E+00 -0.30000E+00  0.00000E+00  0.00000E+00  0.00000E+00    0.16846E+02  0.18389E+02 -0.35235E+02 -0.27829E+01  0.18355E+01  0.17141E+02      982.00
  0.28320E+00  0.61300E+02    0.16250E+00  0.16250E+00 -0.32500E+00  0.00000E+00  0.00000E+00  0.00000E+00    0.16957E+02  0.18482E+02 -0.35440E+02 -0.27268E+01  0.18370E+01  0.17298E+02      982.00
  0.30488E+00  0.61670E+02    0.17500E+00  0.17500E+00 -0.35000E+00  0.00000E+00  0.00000E+00  0.00000E+00    0.17069E+02  0.18570E+02 -0.35639E+02 -0.26889E+01  0.18377E+01  0.17435E+02      982.00
  0.32655E+00  0.62013E+02    0.18750E+00  0.18750E+00 -0.37500E+00  0.00000E+00  0.00000E+00  0.00000E+00    0.17179E+02  0.18648E+02 -0.35827E+02 -0.26560E+01  0.18368E+01  0.17556E+02      982.00
  0.34821E+00  0.62337E+02    0.20000E+00  0.20000E+00 -0.40000E+00  0.00000E+00  0.00000E+00  0.00000E+00    0.17291E+02  0.18714E+02 -0.36005E+02 -0.26166E+01  0.18340E+01  0.17671E+02      982.00
  0.36987E+00  0.62627E+02    0.21250E+00  0.21250E+00 -0.42500E+00  0.00000E+00  0.00000E+00  0.00000E+00    0.17398E+02  0.18775E+02 -0.36172E+02 -0.25904E+01  0.18315E+01  0.17763E+02      982.00
  0.39153E+00  0.62892E+02    0.22500E+00  0.22500E+00 -0.45000E+00  0.00000E+00  0.00000E+00  0.00000E+00    0.17501E+02  0.18827E+02 -0.36328E+02 -0.25670E+01  0.18279E+01  0.17841E+02      982.00
  0.41319E+00  0.63134E+02    0.23750E+00  0.23750E+00 -0.47500E+00  0.00000E+00  0.00000E+00  0.00000E+00    0.17601E+02  0.18872E+02 -0.36473E+02 -0.25443E+01  0.18234E+01  0.17909E+02      982.00
  0.43486E+00  0.63357E+02    0.25000E+00  0.25000E+00 -0.50000E+00  0.00000E+00  0.00000E+00  0.00000E+00    0.17699E+02  0.18911E+02 -0.36609E+02 -0.25238E+01  0.18186E+01  0.17967E+02      982.00
  0.45653E+00  0.63560E+02    0.26250E+00  0.26250E+00 -0.52500E+00  0.00000E+00  0.00000E+00  0.00000E+00    0.17794E+02  0.18943E+02 -0.36736E+02 -0.25044E+01  0.18134E+01  0.18016E+02      982.00
  0.47820E+00  0.63747E+02    0.27500E+00  0.27500E+00 -0.55000E+00  0.00000E+00  0.00000E+00  0.00000E+00    0.17886E+02  0.18969E+02 -0.36855E+02 -0.24858E+01  0.18077E+01  0.18058E+02      982.00
  0.49988E+00  0.63917E+02    0.28750E+00  0.28750E+00 -0.57500E+00  0.00000E+00  0.00000E+00  0.00000E+00    0.17975E+02  0.18990E+02 -0.36965E+02 -0.24680E+01  0.18018E+01  0.18094E+02      982.00
  0.52157E+00  0.64048E+02    0.30000E+00  0.30000E+00 -0.60000E+00  0.00000E+00  0.00000E+00  0.00000E+00    0.18049E+02  0.19003E+02 -0.37052E+02 -0.24529E+01  0.17964E+01  0.18118E+02      982.00
  0.54326E+00  0.64206E+02    0.31250E+00  0.31250E+00 -0.62500E+00  0.00000E+00  0.00000E+00  0.00000E+00    0.18147E+02  0.19007E+02 -0.37154E+02 -0.24310E+01  0.17890E+01  0.18152E+02      982.00
  0.56496E+00  0.64338E+02    0.32500E+00  0.32500E+00 -0.65000E+00  0.00000E+00  0.00000E+00  0.00000E+00    0.18229E+02  0.19015E+02 -0.37245E+02 -0.24143E+01  0.17828E+01  0.18173E+02      982.00
  0.58667E+00  0.64459E+02    0.33750E+00  0.33750E+00 -0.67500E+00  0.00000E+00  0.00000E+00  0.00000E+00    0.18307E+02  0.19021E+02 -0.37328E+02 -0.23989E+01  0.17763E+01  0.18191E+02      982.00
  0.60839E+00  0.64571E+02    0.35000E+00  0.35000E+00 -0.70000E+00  0.00000E+00  0.00000E+00  0.00000E+00    0.18383E+02  0.19023E+02 -0.37406E+02 -0.23842E+01  0.17697E+01  0.18206E+02      982.00
  0.63011E+00  0.64673E+02    0.36250E+00  0.36250E+00 -0.72500E+00  0.00000E+00  0.00000E+00  0.00000E+00    0.18455E+02  0.19024E+02 -0.37479E+02 -0.23700E+01  0.17631E+01  0.18219E+02      982.00
  0.65184E+00  0.64768E+02    0.37500E+00  0.37500E+00 -0.75000E+00  0.00000E+00  0.00000E+00  0.00000E+00    0.18525E+02  0.19022E+02 -0.37546E+02 -0.23565E+01  0.17566E+01  0.18229E+02      982.00
  0.67358E+00  0.64856E+02    0.38750E+00  0.38750E+00 -0.77500E+00  0.00000E+00  0.00000E+00  0.00000E+00    0.18592E+02  0.19017E+02 -0.37610E+02 -0.23435E+01  0.17503E+01  0.18238E+02      982.00
  0.69533E+00  0.64937E+02    0.40000E+00  0.40000E+00 -0.80000E+00  0.00000E+00  0.00000E+00  0.00000E+00    0.18657E+02  0.19011E+02 -0.37669E+02 -0.23311E+01  0.17442E+01  0.18245E+02      982.00
  0.71708E+00  0.65012E+02    0.41250E+00  0.41250E+00 -0.82500E+00  0.00000E+00  0.00000E+00  0.00000E+00    0.18720E+02  0.19004E+02 -0.37724E+02 -0.23194E+01  0.17382E+01  0.18251E+02      982.00
  0.73884E+00  0.65082E+02    0.42500E+00  0.42500E+00 -0.85000E+00  0.00000E+00  0.00000E+00  0.00000E+00    0.18780E+02  0.18995E+02 -0.37775E+02 -0.23082E+01  0.17325E+01  0.18256E+02      982.00
  0.76061E+00  0.65146E+02    0.43750E+00  0.43750E+00 -0.87500E+00  0.00000E+00  0.00000E+00  0.00000E+00    0.18839E+02  0.18985E+02 -0.37824E+02 -0.22976E+01  0.17270E+01  0.18261E+02      982.00
  0.78238E+00  0.65207E+02    0.45000E+00  0.45000E+00 -0.90000E+00  0.00000E+00  0.00000E+00  0.00000E+00    0.18895E+02  0.18974E+02 -0.37869E+02 -0.22875E+01  0.17217E+01  0.18264E+02      982.00
  0.80416E+00  0.65263E+02    0.46250E+00  0.46250E+00 -0.92500E+00  0.00000E+00  0.00000E+00  0.00000E+00    0.18949E+02  0.18961E+02 -0.37911E+02 -0.22781E+01  0.17167E+01  0.18267E+02      982.00
  0.82594E+00  0.65303E+02    0.47500E+00  0.47500E+00 -0.95000E+00  0.00000E+00  0.00000E+00  0.00000E+00    0.19009E+02  0.18932E+02 -0.37941E+02 -0.22663E+01  0.17120E+01  0.18269E+02      982.00
  0.84773E+00  0.65355E+02    0.48750E+00  0.48750E+00 -0.97500E+00  0.00000E+00  0.00000E+00  0.00000E+00    0.19061E+02  0.18920E+02 -0.37981E+02 -0.22567E+01  0.17077E+01  0.18272E+02      982.00
  0.86952E+00  0.65373E+02    0.50000E+00  0.50000E+00 -0.10000E+01  0.00000E+00  0.00000E+00  0.00000E+00    0.19083E+02  0.18916E+02 -0.37999E+02 -0.22441E+01  0.17000E+01  0.18268E+02      982.00
