          Evm          Svm            E11          E22          E33          E23          E13          E12         SDEV11       SDEV22       SDEV33       SDEV23       SDEV13       SDEV12      TEMP
  0.00000E+00  0.62869E+02    0.00000E+00  0.00000E+00  0.00000E+00  0.00000E+00  0.00000E+00  0.00000E+00    0.18307E+02  0.21850E+02 -0.40157E+02  0.29319E+01 -0.43072E+01  0.88191E+01      982.00
  0.23953E-01  0.62849E+02    0.12500E-01  0.12500E-01 -0.25000E-01  0.00000E+00  0.00000E+00  0.00000E+00    0.17903E+02  0.22240E+02 -0.40142E+02  0.30131E+01 -0.40303E+01  0.88376E+01      982.00
  0.47904E-01  0.62862E+02    0.25000E-01  0.25000E-01 -0.50000E-01  0.00000E+00  0.00000E+00  0.00000E+00    0.17604E+02  0.22535E+02 -0.40139E+02  0.31105E+01 -0.37870E+01  0.88760E+01      982.00
  0.71849E-01  0.62911E+02    0.37500E-01  0.37500E-01 -0.75000E-01  0.00000E+00  0.00000E+00  0.00000E+00    0.17357E+02  0.22792E+02 -0.40150E+02  0.31966E+01 -0.35846E+01  0.89343E+01      982.00
  0.95781E-01  0.62996E+02    0.50000E-01  0.50000E-01 -0.10000E+00  0.00000E+00  0.00000E+00  0.00000E+00    0.17161E+02  0.23015E+02 -0.40176E+02  0.32675E+01 -0.34197E+01  0.90162E+01      982.00
  0.11970E+00  0.63122E+02    0.62500E-01  0.62500E-01 -0.12500E+00  0.00000E+00  0.00000E+00  0.00000E+00    0.17003E+02  0.23221E+02 -0.40224E+02  0.33259E+01 -0.32899E+01  0.91169E+01      982.00
  0.14359E+00  0.63273E+02    0.75000E-01  0.75000E-01 -0.15000E+00  0.00000E+00  0.00000E+00  0.00000E+00    0.16874E+02  0.23410E+02 -0.40284E+02  0.33698E+01 -0.31874E+01  0.92322E+01      982.00
  0.16747E+00  0.63461E+02    0.87500E-01  0.87500E-01 -0.17500E+00  0.00000E+00  0.00000E+00  0.00000E+00    0.16787E+02  0.23576E+02 -0.40363E+02  0.34077E+01 -0.31092E+01  0.93667E+01      982.00
  0.19132E+00  0.63671E+02    0.10000E+00  0.10000E+00 -0.20000E+00  0.00000E+00  0.00000E+00  0.00000E+00    0.16724E+02  0.23732E+02 -0.40455E+02  0.34382E+01 -0.30514E+01  0.95092E+01      982.00
  0.21515E+00  0.63900E+02    0.11250E+00  0.11250E+00 -0.22500E+00  0.00000E+00  0.00000E+00  0.00000E+00    0.16687E+02  0.23872E+02 -0.40559E+02  0.34630E+01 -0.30093E+01  0.96609E+01      982.00
  0.23895E+00  0.64144E+02    0.12500E+00  0.12500E+00 -0.25000E+00  0.00000E+00  0.00000E+00  0.00000E+00    0.16676E+02  0.23996E+02 -0.40672E+02  0.34833E+01 -0.29800E+01  0.98213E+01      982.00
  0.26273E+00  0.64405E+02    0.13750E+00  0.13750E+00 -0.27500E+00  0.00000E+00  0.00000E+00  0.00000E+00    0.16690E+02  0.24103E+02 -0.40793E+02  0.35011E+01 -0.29618E+01  0.99908E+01      982.00
  0.28648E+00  0.64644E+02    0.15000E+00  0.15000E+00 -0.30000E+00  0.00000E+00  0.00000E+00  0.00000E+00    0.16731E+02  0.24180E+02 -0.40911E+02  0.35276E+01 -0.29647E+01  0.10128E+02      982.00
  0.31021E+00  0.64907E+02    0.16250E+00  0.16250E+00 -0.32500E+00  0.00000E+00  0.00000E+00  0.00000E+00    0.16789E+02  0.24252E+02 -0.41041E+02  0.35485E+01 -0.29717E+01  0.10282E+02      982.00
  0.33392E+00  0.65170E+02    0.17500E+00  0.17500E+00 -0.35000E+00  0.00000E+00  0.00000E+00  0.00000E+00    0.16862E+02  0.24310E+02 -0.41172E+02  0.35685E+01 -0.29871E+01  0.10433E+02      982.00
  0.35761E+00  0.65443E+02    0.18750E+00  0.18750E+00 -0.37500E+00  0.00000E+00  0.00000E+00  0.00000E+00    0.16951E+02  0.24359E+02 -0.41310E+02  0.35885E+01 -0.30101E+01  0.10585E+02      982.00
  0.38128E+00  0.65688E+02    0.20000E+00  0.20000E+00 -0.40000E+00  0.00000E+00  0.00000E+00  0.00000E+00    0.17039E+02  0.24396E+02 -0.41435E+02  0.36058E+01 -0.30388E+01  0.10721E+02      982.00
  0.40494E+00  0.65916E+02    0.21250E+00  0.21250E+00 -0.42500E+00  0.00000E+00  0.00000E+00  0.00000E+00    0.17138E+02  0.24412E+02 -0.41551E+02  0.36169E+01 -0.30672E+01  0.10851E+02      982.00
  0.42858E+00  0.66130E+02    0.22500E+00  0.22500E+00 -0.45000E+00  0.00000E+00  0.00000E+00  0.00000E+00    0.17245E+02  0.24416E+02 -0.41661E+02  0.36258E+01 -0.30978E+01  0.10974E+02      982.00
  0.45220E+00  0.66338E+02    0.23750E+00  0.23750E+00 -0.47500E+00  0.00000E+00  0.00000E+00  0.00000E+00    0.17357E+02  0.24413E+02 -0.41769E+02  0.36335E+01 -0.31302E+01  0.11089E+02      982.00
  0.47581E+00  0.66525E+02    0.25000E+00  0.25000E+00 -0.50000E+00  0.00000E+00  0.00000E+00  0.00000E+00    0.17470E+02  0.24396E+02 -0.41866E+02  0.36382E+01 -0.31634E+01  0.11198E+02      982.00
  0.49941E+00  0.66698E+02    0.26250E+00  0.26250E+00 -0.52500E+00  0.00000E+00  0.00000E+00  0.00000E+00    0.17585E+02  0.24371E+02 -0.41956E+02  0.36412E+01 -0.31970E+01  0.11300E+02      982.00
  0.52300E+00  0.66858E+02    0.27500E+00  0.27500E+00 -0.55000E+00  0.00000E+00  0.00000E+00  0.00000E+00    0.17700E+02  0.24339E+02 -0.42038E+02  0.36427E+01 -0.32307E+01  0.11395E+02      982.00
  0.54658E+00  0.67005E+02    0.28750E+00  0.28750E+00 -0.57500E+00  0.00000E+00  0.00000E+00  0.00000E+00    0.17814E+02  0.24301E+02 -0.42115E+02  0.36430E+01 -0.32640E+01  0.11483E+02      982.00
  0.57015E+00  0.67131E+02    0.30000E+00  0.30000E+00 -0.60000E+00  0.00000E+00  0.00000E+00  0.00000E+00    0.17935E+02  0.24246E+02 -0.42181E+02  0.36397E+01 -0.32939E+01  0.11563E+02      982.00
  0.59371E+00  0.67257E+02    0.31250E+00  0.31250E+00 -0.62500E+00  0.00000E+00  0.00000E+00  0.00000E+00    0.18046E+02  0.24200E+02 -0.42246E+02  0.36386E+01 -0.33266E+01  0.11640E+02      982.00
  0.61727E+00  0.67373E+02    0.32500E+00  0.32500E+00 -0.65000E+00  0.00000E+00  0.00000E+00  0.00000E+00    0.18154E+02  0.24152E+02 -0.42307E+02  0.36364E+01 -0.33579E+01  0.11711E+02      982.00
  0.64082E+00  0.67479E+02    0.33750E+00  0.33750E+00 -0.67500E+00  0.00000E+00  0.00000E+00  0.00000E+00    0.18258E+02  0.24103E+02 -0.42361E+02  0.36343E+01 -0.33890E+01  0.11778E+02      982.00
  0.66436E+00  0.67577E+02    0.35000E+00  0.35000E+00 -0.70000E+00  0.00000E+00  0.00000E+00  0.00000E+00    0.18358E+02  0.24053E+02 -0.42411E+02  0.36320E+01 -0.34192E+01  0.11840E+02      982.00
  0.68789E+00  0.67653E+02    0.36250E+00  0.36250E+00 -0.72500E+00  0.00000E+00  0.00000E+00  0.00000E+00    0.18463E+02  0.23987E+02 -0.42451E+02  0.36261E+01 -0.34472E+01  0.11892E+02      982.00
  0.71142E+00  0.67737E+02    0.37500E+00  0.37500E+00 -0.75000E+00  0.00000E+00  0.00000E+00  0.00000E+00    0.18556E+02  0.23938E+02 -0.42493E+02  0.36237E+01 -0.34761E+01  0.11946E+02      982.00
  0.73495E+00  0.67813E+02    0.38750E+00  0.38750E+00 -0.77500E+00  0.00000E+00  0.00000E+00  0.00000E+00    0.18643E+02  0.23889E+02 -0.42532E+02  0.36214E+01 -0.35040E+01  0.11996E+02      982.00
  0.75847E+00  0.67884E+02    0.40000E+00  0.40000E+00 -0.80000E+00  0.00000E+00  0.00000E+00  0.00000E+00    0.18727E+02  0.23840E+02 -0.42567E+02  0.36192E+01 -0.35311E+01  0.12043E+02      982.00
  0.78198E+00  0.67938E+02    0.41250E+00  0.41250E+00 -0.82500E+00  0.00000E+00  0.00000E+00  0.00000E+00    0.18817E+02  0.23778E+02 -0.42594E+02  0.36133E+01 -0.35586E+01  0.12081E+02      982.00
  0.80549E+00  0.68000E+02    0.42500E+00  0.42500E+00 -0.85000E+00  0.00000E+00  0.00000E+00  0.00000E+00    0.18892E+02  0.23732E+02 -0.42624E+02  0.36114E+01 -0.35846E+01  0.12122E+02      982.00
  0.82900E+00  0.68055E+02    0.43750E+00  0.43750E+00 -0.87500E+00  0.00000E+00  0.00000E+00  0.00000E+00    0.18962E+02  0.23689E+02 -0.42651E+02  0.36098E+01 -0.36095E+01  0.12160E+02      982.00
  0.85250E+00  0.68107E+02    0.45000E+00  0.45000E+00 -0.90000E+00  0.00000E+00  0.00000E+00  0.00000E+00    0.19029E+02  0.23646E+02 -0.42675E+02  0.36084E+01 -0.36336E+01  0.12196E+02      982.00
  0.87600E+00  0.68154E+02    0.46250E+00  0.46250E+00 -0.92500E+00  0.00000E+00  0.00000E+00  0.00000E+00    0.19091E+02  0.23606E+02 -0.42697E+02  0.36074E+01 -0.36571E+01  0.12230E+02      982.00
  0.89949E+00  0.68193E+02    0.47500E+00  0.47500E+00 -0.95000E+00  0.00000E+00  0.00000E+00  0.00000E+00    0.19165E+02  0.23551E+02 -0.42716E+02  0.36032E+01 -0.36844E+01  0.12257E+02      982.00
  0.92298E+00  0.68234E+02    0.48750E+00  0.48750E+00 -0.97500E+00  0.00000E+00  0.00000E+00  0.00000E+00    0.19220E+02  0.23513E+02 -0.42734E+02  0.36022E+01 -0.37077E+01  0.12288E+02      982.00
  0.94647E+00  0.68235E+02    0.50000E+00  0.50000E+00 -0.10000E+01  0.00000E+00  0.00000E+00  0.00000E+00    0.19213E+02  0.23519E+02 -0.42732E+02  0.35898E+01 -0.37037E+01  0.12299E+02      982.00
