          Evm          Svm            E11          E22          E33          E23          E13          E12         SDEV11       SDEV22       SDEV33       SDEV23       SDEV13       SDEV12      TEMP
  0.00000E+00  0.53502E+02    0.00000E+00  0.00000E+00  0.00000E+00  0.00000E+00  0.00000E+00  0.00000E+00    0.14333E+02  0.20065E+02 -0.34398E+02 -0.20736E+01  0.24769E+01  0.69350E+01      982.00
  0.24110E-01  0.53208E+02    0.12500E-01  0.12500E-01 -0.25000E-01  0.00000E+00  0.00000E+00  0.00000E+00    0.14513E+02  0.19704E+02 -0.34216E+02 -0.20421E+01  0.26380E+01  0.69102E+01      982.00
  0.48225E-01  0.53018E+02    0.25000E-01  0.25000E-01 -0.50000E-01  0.00000E+00  0.00000E+00  0.00000E+00    0.14784E+02  0.19307E+02 -0.34091E+02 -0.19460E+01  0.28419E+01  0.69518E+01      982.00
  0.72338E-01  0.52956E+02    0.37500E-01  0.37500E-01 -0.75000E-01  0.00000E+00  0.00000E+00  0.00000E+00    0.15182E+02  0.18848E+02 -0.34030E+02 -0.17565E+01  0.31008E+01  0.70854E+01      982.00
  0.96436E-01  0.53020E+02    0.50000E-01  0.50000E-01 -0.10000E+00  0.00000E+00  0.00000E+00  0.00000E+00    0.15682E+02  0.18342E+02 -0.34024E+02 -0.14821E+01  0.34034E+01  0.72978E+01      982.00
  0.12050E+00  0.53174E+02    0.62500E-01  0.62500E-01 -0.12500E+00  0.00000E+00  0.00000E+00  0.00000E+00    0.16232E+02  0.17819E+02 -0.34051E+02 -0.11545E+01  0.37228E+01  0.75537E+01      982.00
  0.14451E+00  0.53371E+02    0.75000E-01  0.75000E-01 -0.15000E+00  0.00000E+00  0.00000E+00  0.00000E+00    0.16761E+02  0.17328E+02 -0.34088E+02 -0.81702E+00  0.40261E+01  0.78116E+01      982.00
  0.16847E+00  0.53589E+02    0.87500E-01  0.87500E-01 -0.17500E+00  0.00000E+00  0.00000E+00  0.00000E+00    0.17217E+02  0.16915E+02 -0.34132E+02 -0.50090E+00  0.42930E+01  0.80488E+01      982.00
  0.19235E+00  0.53824E+02    0.10000E+00  0.10000E+00 -0.20000E+00  0.00000E+00  0.00000E+00  0.00000E+00    0.17590E+02  0.16597E+02 -0.34187E+02 -0.20902E+00  0.45259E+01  0.82669E+01      982.00
  0.21617E+00  0.54074E+02    0.11250E+00  0.11250E+00 -0.22500E+00  0.00000E+00  0.00000E+00  0.00000E+00    0.17886E+02  0.16369E+02 -0.34255E+02  0.58970E-01  0.47314E+01  0.84657E+01      982.00
  0.23992E+00  0.54325E+02    0.12500E+00  0.12500E+00 -0.25000E+00  0.00000E+00  0.00000E+00  0.00000E+00    0.18113E+02  0.16218E+02 -0.34331E+02  0.30409E+00  0.49145E+01  0.86391E+01      982.00
  0.26362E+00  0.54574E+02    0.13750E+00  0.13750E+00 -0.27500E+00  0.00000E+00  0.00000E+00  0.00000E+00    0.18290E+02  0.16124E+02 -0.34413E+02  0.53126E+00  0.50841E+01  0.87898E+01      982.00
  0.28727E+00  0.54796E+02    0.15000E+00  0.15000E+00 -0.30000E+00  0.00000E+00  0.00000E+00  0.00000E+00    0.18416E+02  0.16075E+02 -0.34492E+02  0.73392E+00  0.52389E+01  0.89021E+01      982.00
  0.31087E+00  0.54992E+02    0.16250E+00  0.16250E+00 -0.32500E+00  0.00000E+00  0.00000E+00  0.00000E+00    0.18511E+02  0.16053E+02 -0.34564E+02  0.91850E+00  0.53873E+01  0.89812E+01      982.00
  0.33444E+00  0.55163E+02    0.17500E+00  0.17500E+00 -0.35000E+00  0.00000E+00  0.00000E+00  0.00000E+00    0.18583E+02  0.16045E+02 -0.34627E+02  0.10906E+01  0.55353E+01  0.90329E+01      982.00
  0.35798E+00  0.55287E+02    0.18750E+00  0.18750E+00 -0.37500E+00  0.00000E+00  0.00000E+00  0.00000E+00    0.18628E+02  0.16046E+02 -0.34674E+02  0.12429E+01  0.56797E+01  0.90376E+01      982.00
  0.38150E+00  0.55374E+02    0.20000E+00  0.20000E+00 -0.40000E+00  0.00000E+00  0.00000E+00  0.00000E+00    0.18657E+02  0.16049E+02 -0.34706E+02  0.13807E+01  0.58241E+01  0.90100E+01      982.00
  0.40501E+00  0.55431E+02    0.21250E+00  0.21250E+00 -0.42500E+00  0.00000E+00  0.00000E+00  0.00000E+00    0.18673E+02  0.16051E+02 -0.34724E+02  0.15079E+01  0.59724E+01  0.89565E+01      982.00
  0.42850E+00  0.55435E+02    0.22500E+00  0.22500E+00 -0.45000E+00  0.00000E+00  0.00000E+00  0.00000E+00    0.18670E+02  0.16050E+02 -0.34720E+02  0.16203E+01  0.61204E+01  0.88559E+01      982.00
  0.45198E+00  0.55394E+02    0.23750E+00  0.23750E+00 -0.47500E+00  0.00000E+00  0.00000E+00  0.00000E+00    0.18652E+02  0.16043E+02 -0.34696E+02  0.17214E+01  0.62704E+01  0.87181E+01      982.00
  0.47547E+00  0.55308E+02    0.25000E+00  0.25000E+00 -0.50000E+00  0.00000E+00  0.00000E+00  0.00000E+00    0.18619E+02  0.16032E+02 -0.34650E+02  0.18117E+01  0.64221E+01  0.85422E+01      982.00
  0.49897E+00  0.55175E+02    0.26250E+00  0.26250E+00 -0.52500E+00  0.00000E+00  0.00000E+00  0.00000E+00    0.18569E+02  0.16014E+02 -0.34583E+02  0.18825E+01  0.65768E+01  0.83275E+01      982.00
  0.52247E+00  0.54990E+02    0.27500E+00  0.27500E+00 -0.55000E+00  0.00000E+00  0.00000E+00  0.00000E+00    0.18498E+02  0.15995E+02 -0.34493E+02  0.19520E+01  0.67220E+01  0.80676E+01      982.00
  0.54599E+00  0.54761E+02    0.28750E+00  0.28750E+00 -0.57500E+00  0.00000E+00  0.00000E+00  0.00000E+00    0.18411E+02  0.15969E+02 -0.34380E+02  0.19997E+01  0.68736E+01  0.77683E+01      982.00
  0.56954E+00  0.54481E+02    0.30000E+00  0.30000E+00 -0.60000E+00  0.00000E+00  0.00000E+00  0.00000E+00    0.18299E+02  0.15945E+02 -0.34245E+02  0.20532E+01  0.70119E+01  0.74234E+01      982.00
  0.59311E+00  0.54144E+02    0.31250E+00  0.31250E+00 -0.62500E+00  0.00000E+00  0.00000E+00  0.00000E+00    0.18162E+02  0.15922E+02 -0.34084E+02  0.20746E+01  0.71373E+01  0.70260E+01      982.00
  0.61671E+00  0.53746E+02    0.32500E+00  0.32500E+00 -0.65000E+00  0.00000E+00  0.00000E+00  0.00000E+00    0.17992E+02  0.15910E+02 -0.33902E+02  0.20691E+01  0.72346E+01  0.65703E+01      982.00
  0.64037E+00  0.53304E+02    0.33750E+00  0.33750E+00 -0.67500E+00  0.00000E+00  0.00000E+00  0.00000E+00    0.17791E+02  0.15906E+02 -0.33698E+02  0.20528E+01  0.73159E+01  0.60696E+01      982.00
  0.66408E+00  0.52809E+02    0.35000E+00  0.35000E+00 -0.70000E+00  0.00000E+00  0.00000E+00  0.00000E+00    0.17563E+02  0.15909E+02 -0.33472E+02  0.20062E+01  0.73642E+01  0.55113E+01      982.00
  0.68784E+00  0.52253E+02    0.36250E+00  0.36250E+00 -0.72500E+00  0.00000E+00  0.00000E+00  0.00000E+00    0.17301E+02  0.15926E+02 -0.33226E+02  0.19185E+01  0.73607E+01  0.48799E+01      982.00
  0.71169E+00  0.51652E+02    0.37500E+00  0.37500E+00 -0.75000E+00  0.00000E+00  0.00000E+00  0.00000E+00    0.17004E+02  0.15962E+02 -0.32966E+02  0.17884E+01  0.72982E+01  0.41807E+01      982.00
  0.73562E+00  0.51002E+02    0.38750E+00  0.38750E+00 -0.77500E+00  0.00000E+00  0.00000E+00  0.00000E+00    0.16665E+02  0.16031E+02 -0.32696E+02  0.15968E+01  0.71475E+01  0.33995E+01      982.00
  0.75966E+00  0.50326E+02    0.40000E+00  0.40000E+00 -0.80000E+00  0.00000E+00  0.00000E+00  0.00000E+00    0.16285E+02  0.16138E+02 -0.32424E+02  0.13378E+01  0.68939E+01  0.25350E+01      982.00
  0.78382E+00  0.49645E+02    0.41250E+00  0.41250E+00 -0.82500E+00  0.00000E+00  0.00000E+00  0.00000E+00    0.15863E+02  0.16295E+02 -0.32157E+02  0.99680E+00  0.65126E+01  0.15806E+01      982.00
  0.80811E+00  0.48998E+02    0.42500E+00  0.42500E+00 -0.85000E+00  0.00000E+00  0.00000E+00  0.00000E+00    0.15396E+02  0.16514E+02 -0.31910E+02  0.55541E+00  0.59742E+01  0.53003E+00      982.00
  0.83254E+00  0.48450E+02    0.43750E+00  0.43750E+00 -0.87500E+00  0.00000E+00  0.00000E+00  0.00000E+00    0.14896E+02  0.16798E+02 -0.31694E+02  0.46603E-02  0.52719E+01 -0.61003E+00      982.00
  0.85707E+00  0.48079E+02    0.45000E+00  0.45000E+00 -0.90000E+00  0.00000E+00  0.00000E+00  0.00000E+00    0.14381E+02  0.17145E+02 -0.31526E+02 -0.66428E+00  0.44078E+01 -0.18263E+01      982.00
  0.88166E+00  0.47967E+02    0.46250E+00  0.46250E+00 -0.92500E+00  0.00000E+00  0.00000E+00  0.00000E+00    0.13885E+02  0.17533E+02 -0.31418E+02 -0.14446E+01  0.34159E+01 -0.30863E+01      982.00
  0.90622E+00  0.48166E+02    0.47500E+00  0.47500E+00 -0.95000E+00  0.00000E+00  0.00000E+00  0.00000E+00    0.13453E+02  0.17929E+02 -0.31382E+02 -0.23037E+01  0.23625E+01 -0.43361E+01      982.00
  0.93065E+00  0.48666E+02    0.48750E+00  0.48750E+00 -0.97500E+00  0.00000E+00  0.00000E+00  0.00000E+00    0.13118E+02  0.18301E+02 -0.31419E+02 -0.31913E+01  0.13170E+01 -0.55177E+01      982.00
  0.95486E+00  0.49350E+02    0.50000E+00  0.50000E+00 -0.10000E+01  0.00000E+00  0.00000E+00  0.00000E+00    0.12884E+02  0.18624E+02 -0.31509E+02 -0.39998E+01  0.36456E+00 -0.65461E+01      982.00
