          Evm          Svm            E11          E22          E33          E23          E13          E12         SDEV11       SDEV22       SDEV33       SDEV23       SDEV13       SDEV12      TEMP
  0.00000E+00  0.46349E+02    0.00000E+00  0.00000E+00  0.00000E+00  0.00000E+00  0.00000E+00  0.00000E+00    0.94739E+01  0.20651E+02 -0.30125E+02 -0.12198E+01  0.15555E+01  0.56788E+00      982.00
  0.24373E-01  0.46592E+02    0.12500E-01  0.12500E-01 -0.25000E-01  0.00000E+00  0.00000E+00  0.00000E+00    0.92374E+01  0.20976E+02 -0.30213E+02 -0.18641E+01  0.75370E+00 -0.68315E+00      982.00
  0.48691E-01  0.47041E+02    0.25000E-01  0.25000E-01 -0.50000E-01  0.00000E+00  0.00000E+00  0.00000E+00    0.92821E+01  0.21002E+02 -0.30284E+02 -0.30469E+01 -0.55628E+00 -0.24175E+01      982.00
  0.72833E-01  0.47564E+02    0.37500E-01  0.37500E-01 -0.75000E-01  0.00000E+00  0.00000E+00  0.00000E+00    0.96292E+01  0.20703E+02 -0.30332E+02 -0.40293E+01 -0.15809E+01 -0.38304E+01      982.00
  0.96747E-01  0.48153E+02    0.50000E-01  0.50000E-01 -0.10000E+00  0.00000E+00  0.00000E+00  0.00000E+00    0.99285E+01  0.20528E+02 -0.30456E+02 -0.45976E+01 -0.22202E+01 -0.48020E+01      982.00
  0.12047E+00  0.48767E+02    0.62500E-01  0.62500E-01 -0.12500E+00  0.00000E+00  0.00000E+00  0.00000E+00    0.10176E+02  0.20458E+02 -0.30635E+02 -0.49598E+01 -0.26633E+01 -0.55465E+01      982.00
  0.14402E+00  0.49386E+02    0.75000E-01  0.75000E-01 -0.15000E+00  0.00000E+00  0.00000E+00  0.00000E+00    0.10394E+02  0.20454E+02 -0.30848E+02 -0.52097E+01 -0.29925E+01 -0.61577E+01      982.00
  0.16745E+00  0.50001E+02    0.87500E-01  0.87500E-01 -0.17500E+00  0.00000E+00  0.00000E+00  0.00000E+00    0.10593E+02  0.20493E+02 -0.31086E+02 -0.53871E+01 -0.32442E+01 -0.66766E+01      982.00
  0.19076E+00  0.50609E+02    0.10000E+00  0.10000E+00 -0.20000E+00  0.00000E+00  0.00000E+00  0.00000E+00    0.10780E+02  0.20563E+02 -0.31343E+02 -0.55145E+01 -0.34412E+01 -0.71282E+01      982.00
  0.21398E+00  0.51207E+02    0.11250E+00  0.11250E+00 -0.22500E+00  0.00000E+00  0.00000E+00  0.00000E+00    0.10958E+02  0.20656E+02 -0.31613E+02 -0.56042E+01 -0.35961E+01 -0.75269E+01      982.00
  0.23713E+00  0.51800E+02    0.12500E+00  0.12500E+00 -0.25000E+00  0.00000E+00  0.00000E+00  0.00000E+00    0.11132E+02  0.20765E+02 -0.31897E+02 -0.56652E+01 -0.37205E+01 -0.78869E+01      982.00
  0.26023E+00  0.52382E+02    0.13750E+00  0.13750E+00 -0.27500E+00  0.00000E+00  0.00000E+00  0.00000E+00    0.11301E+02  0.20890E+02 -0.32191E+02 -0.57017E+01 -0.38170E+01 -0.82087E+01      982.00
  0.28327E+00  0.52957E+02    0.15000E+00  0.15000E+00 -0.30000E+00  0.00000E+00  0.00000E+00  0.00000E+00    0.11470E+02  0.21023E+02 -0.32493E+02 -0.57219E+01 -0.38947E+01 -0.85011E+01      982.00
  0.30628E+00  0.53528E+02    0.16250E+00  0.16250E+00 -0.32500E+00  0.00000E+00  0.00000E+00  0.00000E+00    0.11638E+02  0.21161E+02 -0.32799E+02 -0.57370E+01 -0.39642E+01 -0.87717E+01      982.00
  0.32926E+00  0.54092E+02    0.17500E+00  0.17500E+00 -0.35000E+00  0.00000E+00  0.00000E+00  0.00000E+00    0.11812E+02  0.21302E+02 -0.33115E+02 -0.57352E+01 -0.40131E+01 -0.90199E+01      982.00
  0.35222E+00  0.54661E+02    0.18750E+00  0.18750E+00 -0.37500E+00  0.00000E+00  0.00000E+00  0.00000E+00    0.11992E+02  0.21444E+02 -0.33436E+02 -0.57360E+01 -0.40618E+01 -0.92587E+01      982.00
  0.37515E+00  0.55221E+02    0.20000E+00  0.20000E+00 -0.40000E+00  0.00000E+00  0.00000E+00  0.00000E+00    0.12184E+02  0.21579E+02 -0.33764E+02 -0.57277E+01 -0.40976E+01 -0.94760E+01      982.00
  0.39808E+00  0.55777E+02    0.21250E+00  0.21250E+00 -0.42500E+00  0.00000E+00  0.00000E+00  0.00000E+00    0.12386E+02  0.21709E+02 -0.34095E+02 -0.57191E+01 -0.41289E+01 -0.96798E+01      982.00
  0.42101E+00  0.56330E+02    0.22500E+00  0.22500E+00 -0.45000E+00  0.00000E+00  0.00000E+00  0.00000E+00    0.12599E+02  0.21830E+02 -0.34430E+02 -0.57117E+01 -0.41565E+01 -0.98708E+01      982.00
  0.44393E+00  0.56895E+02    0.23750E+00  0.23750E+00 -0.47500E+00  0.00000E+00  0.00000E+00  0.00000E+00    0.12831E+02  0.21942E+02 -0.34773E+02 -0.57123E+01 -0.41903E+01 -0.10061E+02      982.00
  0.46684E+00  0.57435E+02    0.25000E+00  0.25000E+00 -0.50000E+00  0.00000E+00  0.00000E+00  0.00000E+00    0.13068E+02  0.22043E+02 -0.35111E+02 -0.57087E+01 -0.42113E+01 -0.10226E+02      982.00
  0.48977E+00  0.57966E+02    0.26250E+00  0.26250E+00 -0.52500E+00  0.00000E+00  0.00000E+00  0.00000E+00    0.13315E+02  0.22133E+02 -0.35448E+02 -0.57074E+01 -0.42284E+01 -0.10379E+02      982.00
  0.51270E+00  0.58487E+02    0.27500E+00  0.27500E+00 -0.55000E+00  0.00000E+00  0.00000E+00  0.00000E+00    0.13571E+02  0.22212E+02 -0.35784E+02 -0.57086E+01 -0.42419E+01 -0.10519E+02      982.00
  0.53564E+00  0.58996E+02    0.28750E+00  0.28750E+00 -0.57500E+00  0.00000E+00  0.00000E+00  0.00000E+00    0.13835E+02  0.22281E+02 -0.36116E+02 -0.57120E+01 -0.42517E+01 -0.10647E+02      982.00
  0.55860E+00  0.59493E+02    0.30000E+00  0.30000E+00 -0.60000E+00  0.00000E+00  0.00000E+00  0.00000E+00    0.14107E+02  0.22339E+02 -0.36446E+02 -0.57174E+01 -0.42577E+01 -0.10763E+02      982.00
  0.58157E+00  0.59976E+02    0.31250E+00  0.31250E+00 -0.62500E+00  0.00000E+00  0.00000E+00  0.00000E+00    0.14384E+02  0.22386E+02 -0.36770E+02 -0.57244E+01 -0.42597E+01 -0.10867E+02      982.00
  0.60456E+00  0.60444E+02    0.32500E+00  0.32500E+00 -0.65000E+00  0.00000E+00  0.00000E+00  0.00000E+00    0.14666E+02  0.22423E+02 -0.37089E+02 -0.57327E+01 -0.42578E+01 -0.10959E+02      982.00
  0.62757E+00  0.60897E+02    0.33750E+00  0.33750E+00 -0.67500E+00  0.00000E+00  0.00000E+00  0.00000E+00    0.14951E+02  0.22450E+02 -0.37402E+02 -0.57418E+01 -0.42520E+01 -0.11039E+02      982.00
  0.65061E+00  0.61333E+02    0.35000E+00  0.35000E+00 -0.70000E+00  0.00000E+00  0.00000E+00  0.00000E+00    0.15239E+02  0.22468E+02 -0.37707E+02 -0.57515E+01 -0.42424E+01 -0.11109E+02      982.00
  0.67366E+00  0.61751E+02    0.36250E+00  0.36250E+00 -0.72500E+00  0.00000E+00  0.00000E+00  0.00000E+00    0.15528E+02  0.22477E+02 -0.38005E+02 -0.57580E+01 -0.42279E+01 -0.11166E+02      982.00
  0.69674E+00  0.62155E+02    0.37500E+00  0.37500E+00 -0.75000E+00  0.00000E+00  0.00000E+00  0.00000E+00    0.15817E+02  0.22478E+02 -0.38295E+02 -0.57678E+01 -0.42112E+01 -0.11214E+02      982.00
  0.71985E+00  0.62542E+02    0.38750E+00  0.38750E+00 -0.77500E+00  0.00000E+00  0.00000E+00  0.00000E+00    0.16105E+02  0.22472E+02 -0.38577E+02 -0.57775E+01 -0.41912E+01 -0.11253E+02      982.00
  0.74298E+00  0.62912E+02    0.40000E+00  0.40000E+00 -0.80000E+00  0.00000E+00  0.00000E+00  0.00000E+00    0.16392E+02  0.22458E+02 -0.38849E+02 -0.57868E+01 -0.41682E+01 -0.11283E+02      982.00
  0.76613E+00  0.63258E+02    0.41250E+00  0.41250E+00 -0.82500E+00  0.00000E+00  0.00000E+00  0.00000E+00    0.16681E+02  0.22426E+02 -0.39107E+02 -0.58047E+01 -0.41432E+01 -0.11302E+02      982.00
  0.78932E+00  0.63595E+02    0.42500E+00  0.42500E+00 -0.85000E+00  0.00000E+00  0.00000E+00  0.00000E+00    0.16961E+02  0.22400E+02 -0.39362E+02 -0.58127E+01 -0.41133E+01 -0.11314E+02      982.00
  0.81253E+00  0.63911E+02    0.43750E+00  0.43750E+00 -0.87500E+00  0.00000E+00  0.00000E+00  0.00000E+00    0.17217E+02  0.22385E+02 -0.39602E+02 -0.58114E+01 -0.40835E+01 -0.11323E+02      982.00
  0.83576E+00  0.64218E+02    0.45000E+00  0.45000E+00 -0.90000E+00  0.00000E+00  0.00000E+00  0.00000E+00    0.17491E+02  0.22347E+02 -0.39839E+02 -0.58168E+01 -0.40518E+01 -0.11320E+02      982.00
  0.85903E+00  0.64509E+02    0.46250E+00  0.46250E+00 -0.92500E+00  0.00000E+00  0.00000E+00  0.00000E+00    0.17761E+02  0.22305E+02 -0.40066E+02 -0.58222E+01 -0.40179E+01 -0.11311E+02      982.00
  0.88232E+00  0.64785E+02    0.47500E+00  0.47500E+00 -0.95000E+00  0.00000E+00  0.00000E+00  0.00000E+00    0.18026E+02  0.22259E+02 -0.40284E+02 -0.58269E+01 -0.39824E+01 -0.11296E+02      982.00
  0.90564E+00  0.65052E+02    0.48750E+00  0.48750E+00 -0.97500E+00  0.00000E+00  0.00000E+00  0.00000E+00    0.18285E+02  0.22213E+02 -0.40498E+02 -0.58243E+01 -0.39490E+01 -0.11277E+02      982.00
  0.92898E+00  0.65299E+02    0.50000E+00  0.50000E+00 -0.10000E+01  0.00000E+00  0.00000E+00  0.00000E+00    0.18540E+02  0.22157E+02 -0.40698E+02 -0.58275E+01 -0.39125E+01 -0.11250E+02      982.00
