          Evm          Svm            E11          E22          E33          E23          E13          E12         SDEV11       SDEV22       SDEV33       SDEV23       SDEV13       SDEV12      TEMP
  0.00000E+00  0.56530E+02    0.00000E+00  0.00000E+00  0.00000E+00  0.00000E+00  0.00000E+00  0.00000E+00    0.17213E+02  0.15800E+02 -0.33013E+02 -0.16461E+01  0.46061E+01  0.14947E+02      982.00
  0.21900E-01  0.56472E+02    0.12500E-01  0.12500E-01 -0.25000E-01  0.00000E+00  0.00000E+00  0.00000E+00    0.17143E+02  0.15889E+02 -0.33032E+02 -0.18671E+01  0.43110E+01  0.14907E+02      982.00
  0.43834E-01  0.56553E+02    0.25000E-01  0.25000E-01 -0.50000E-01  0.00000E+00  0.00000E+00  0.00000E+00    0.17130E+02  0.15973E+02 -0.33103E+02 -0.20369E+01  0.40601E+01  0.14943E+02      982.00
  0.65784E-01  0.56759E+02    0.37500E-01  0.37500E-01 -0.75000E-01  0.00000E+00  0.00000E+00  0.00000E+00    0.17152E+02  0.16069E+02 -0.33221E+02 -0.21720E+01  0.38350E+01  0.15047E+02      982.00
  0.87733E-01  0.57053E+02    0.50000E-01  0.50000E-01 -0.10000E+00  0.00000E+00  0.00000E+00  0.00000E+00    0.17200E+02  0.16176E+02 -0.33376E+02 -0.22807E+01  0.36260E+01  0.15196E+02      982.00
  0.10967E+00  0.57420E+02    0.62500E-01  0.62500E-01 -0.12500E+00  0.00000E+00  0.00000E+00  0.00000E+00    0.17264E+02  0.16293E+02 -0.33558E+02 -0.23709E+01  0.34342E+01  0.15388E+02      982.00
  0.13159E+00  0.57834E+02    0.75000E-01  0.75000E-01 -0.15000E+00  0.00000E+00  0.00000E+00  0.00000E+00    0.17344E+02  0.16416E+02 -0.33760E+02 -0.24387E+01  0.32656E+01  0.15599E+02      982.00
  0.15348E+00  0.58280E+02    0.87500E-01  0.87500E-01 -0.17500E+00  0.00000E+00  0.00000E+00  0.00000E+00    0.17429E+02  0.16546E+02 -0.33975E+02 -0.24957E+01  0.31117E+01  0.15822E+02      982.00
  0.17534E+00  0.58742E+02    0.10000E+00  0.10000E+00 -0.20000E+00  0.00000E+00  0.00000E+00  0.00000E+00    0.17521E+02  0.16677E+02 -0.34198E+02 -0.25355E+01  0.29791E+01  0.16049E+02      982.00
  0.19717E+00  0.59202E+02    0.11250E+00  0.11250E+00 -0.22500E+00  0.00000E+00  0.00000E+00  0.00000E+00    0.17611E+02  0.16812E+02 -0.34423E+02 -0.25687E+01  0.28571E+01  0.16268E+02      982.00
  0.21897E+00  0.59662E+02    0.12500E+00  0.12500E+00 -0.25000E+00  0.00000E+00  0.00000E+00  0.00000E+00    0.17703E+02  0.16946E+02 -0.34649E+02 -0.25895E+01  0.27560E+01  0.16483E+02      982.00
  0.24075E+00  0.60098E+02    0.13750E+00  0.13750E+00 -0.27500E+00  0.00000E+00  0.00000E+00  0.00000E+00    0.17787E+02  0.17080E+02 -0.34867E+02 -0.26057E+01  0.26599E+01  0.16678E+02      982.00
  0.26251E+00  0.60527E+02    0.15000E+00  0.15000E+00 -0.30000E+00  0.00000E+00  0.00000E+00  0.00000E+00    0.17873E+02  0.17210E+02 -0.35083E+02 -0.26137E+01  0.25841E+01  0.16866E+02      982.00
  0.28424E+00  0.60934E+02    0.16250E+00  0.16250E+00 -0.32500E+00  0.00000E+00  0.00000E+00  0.00000E+00    0.17954E+02  0.17337E+02 -0.35291E+02 -0.26167E+01  0.25182E+01  0.17038E+02      982.00
  0.30596E+00  0.61306E+02    0.17500E+00  0.17500E+00 -0.35000E+00  0.00000E+00  0.00000E+00  0.00000E+00    0.18025E+02  0.17460E+02 -0.35485E+02 -0.26165E+01  0.24519E+01  0.17189E+02      982.00
  0.32767E+00  0.61664E+02    0.18750E+00  0.18750E+00 -0.37500E+00  0.00000E+00  0.00000E+00  0.00000E+00    0.18097E+02  0.17578E+02 -0.35675E+02 -0.26121E+01  0.24019E+01  0.17328E+02      982.00
  0.34936E+00  0.61991E+02    0.20000E+00  0.20000E+00 -0.40000E+00  0.00000E+00  0.00000E+00  0.00000E+00    0.18159E+02  0.17692E+02 -0.35851E+02 -0.26041E+01  0.23483E+01  0.17454E+02      982.00
  0.37105E+00  0.62299E+02    0.21250E+00  0.21250E+00 -0.42500E+00  0.00000E+00  0.00000E+00  0.00000E+00    0.18223E+02  0.17799E+02 -0.36021E+02 -0.25941E+01  0.23095E+01  0.17563E+02      982.00
  0.39273E+00  0.62583E+02    0.22500E+00  0.22500E+00 -0.45000E+00  0.00000E+00  0.00000E+00  0.00000E+00    0.18283E+02  0.17899E+02 -0.36181E+02 -0.25817E+01  0.22751E+01  0.17659E+02      982.00
  0.41441E+00  0.62848E+02    0.23750E+00  0.23750E+00 -0.47500E+00  0.00000E+00  0.00000E+00  0.00000E+00    0.18334E+02  0.17997E+02 -0.36331E+02 -0.25643E+01  0.22341E+01  0.17750E+02      982.00
  0.43609E+00  0.63085E+02    0.25000E+00  0.25000E+00 -0.50000E+00  0.00000E+00  0.00000E+00  0.00000E+00    0.18386E+02  0.18085E+02 -0.36471E+02 -0.25489E+01  0.22043E+01  0.17822E+02      982.00
  0.45777E+00  0.63306E+02    0.26250E+00  0.26250E+00 -0.52500E+00  0.00000E+00  0.00000E+00  0.00000E+00    0.18436E+02  0.18166E+02 -0.36602E+02 -0.25320E+01  0.21785E+01  0.17886E+02      982.00
  0.47945E+00  0.63508E+02    0.27500E+00  0.27500E+00 -0.55000E+00  0.00000E+00  0.00000E+00  0.00000E+00    0.18484E+02  0.18242E+02 -0.36725E+02 -0.25143E+01  0.21546E+01  0.17941E+02      982.00
  0.50114E+00  0.63694E+02    0.28750E+00  0.28750E+00 -0.57500E+00  0.00000E+00  0.00000E+00  0.00000E+00    0.18529E+02  0.18312E+02 -0.36841E+02 -0.24960E+01  0.21322E+01  0.17989E+02      982.00
  0.52283E+00  0.63865E+02    0.30000E+00  0.30000E+00 -0.60000E+00  0.00000E+00  0.00000E+00  0.00000E+00    0.18572E+02  0.18376E+02 -0.36948E+02 -0.24775E+01  0.21110E+01  0.18030E+02      982.00
  0.54452E+00  0.64009E+02    0.31250E+00  0.31250E+00 -0.62500E+00  0.00000E+00  0.00000E+00  0.00000E+00    0.18605E+02  0.18433E+02 -0.37039E+02 -0.24556E+01  0.20860E+01  0.18068E+02      982.00
  0.56622E+00  0.64156E+02    0.32500E+00  0.32500E+00 -0.65000E+00  0.00000E+00  0.00000E+00  0.00000E+00    0.18645E+02  0.18488E+02 -0.37134E+02 -0.24367E+01  0.20667E+01  0.18099E+02      982.00
  0.58793E+00  0.64289E+02    0.33750E+00  0.33750E+00 -0.67500E+00  0.00000E+00  0.00000E+00  0.00000E+00    0.18684E+02  0.18538E+02 -0.37222E+02 -0.24181E+01  0.20488E+01  0.18126E+02      982.00
  0.60964E+00  0.64412E+02    0.35000E+00  0.35000E+00 -0.70000E+00  0.00000E+00  0.00000E+00  0.00000E+00    0.18721E+02  0.18583E+02 -0.37305E+02 -0.23998E+01  0.20316E+01  0.18148E+02      982.00
  0.63136E+00  0.64526E+02    0.36250E+00  0.36250E+00 -0.72500E+00  0.00000E+00  0.00000E+00  0.00000E+00    0.18757E+02  0.18625E+02 -0.37382E+02 -0.23820E+01  0.20152E+01  0.18168E+02      982.00
  0.65308E+00  0.64631E+02    0.37500E+00  0.37500E+00 -0.75000E+00  0.00000E+00  0.00000E+00  0.00000E+00    0.18792E+02  0.18662E+02 -0.37454E+02 -0.23648E+01  0.19995E+01  0.18185E+02      982.00
  0.67481E+00  0.64728E+02    0.38750E+00  0.38750E+00 -0.77500E+00  0.00000E+00  0.00000E+00  0.00000E+00    0.18826E+02  0.18695E+02 -0.37521E+02 -0.23482E+01  0.19844E+01  0.18200E+02      982.00
  0.69655E+00  0.64818E+02    0.40000E+00  0.40000E+00 -0.80000E+00  0.00000E+00  0.00000E+00  0.00000E+00    0.18859E+02  0.18726E+02 -0.37584E+02 -0.23322E+01  0.19699E+01  0.18212E+02      982.00
  0.71830E+00  0.64901E+02    0.41250E+00  0.41250E+00 -0.82500E+00  0.00000E+00  0.00000E+00  0.00000E+00    0.18891E+02  0.18753E+02 -0.37644E+02 -0.23169E+01  0.19560E+01  0.18223E+02      982.00
  0.74005E+00  0.64979E+02    0.42500E+00  0.42500E+00 -0.85000E+00  0.00000E+00  0.00000E+00  0.00000E+00    0.18922E+02  0.18777E+02 -0.37699E+02 -0.23024E+01  0.19426E+01  0.18233E+02      982.00
  0.76180E+00  0.65051E+02    0.43750E+00  0.43750E+00 -0.87500E+00  0.00000E+00  0.00000E+00  0.00000E+00    0.18953E+02  0.18798E+02 -0.37751E+02 -0.22886E+01  0.19298E+01  0.18241E+02      982.00
  0.78357E+00  0.65117E+02    0.45000E+00  0.45000E+00 -0.90000E+00  0.00000E+00  0.00000E+00  0.00000E+00    0.18983E+02  0.18816E+02 -0.37799E+02 -0.22756E+01  0.19175E+01  0.18248E+02      982.00
  0.80533E+00  0.65180E+02    0.46250E+00  0.46250E+00 -0.92500E+00  0.00000E+00  0.00000E+00  0.00000E+00    0.19013E+02  0.18832E+02 -0.37845E+02 -0.22633E+01  0.19058E+01  0.18254E+02      982.00
  0.82711E+00  0.65238E+02    0.47500E+00  0.47500E+00 -0.95000E+00  0.00000E+00  0.00000E+00  0.00000E+00    0.19042E+02  0.18846E+02 -0.37887E+02 -0.22518E+01  0.18945E+01  0.18259E+02      982.00
  0.84889E+00  0.65280E+02    0.48750E+00  0.48750E+00 -0.97500E+00  0.00000E+00  0.00000E+00  0.00000E+00    0.19069E+02  0.18850E+02 -0.37918E+02 -0.22376E+01  0.18803E+01  0.18265E+02      982.00
  0.87067E+00  0.65305E+02    0.50000E+00  0.50000E+00 -0.10000E+01  0.00000E+00  0.00000E+00  0.00000E+00    0.19086E+02  0.18855E+02 -0.37941E+02 -0.22217E+01  0.18711E+01  0.18261E+02      982.00
