          Evm          Svm            E11          E22          E33          E23          E13          E12         SDEV11       SDEV22       SDEV33       SDEV23       SDEV13       SDEV12      TEMP
  0.00000E+00  0.64522E+02    0.00000E+00  0.00000E+00  0.00000E+00  0.00000E+00  0.00000E+00  0.00000E+00    0.16811E+02  0.24553E+02 -0.41364E+02 -0.35783E+00 -0.65354E+01 -0.68284E+01      982.00
  0.24041E-01  0.64623E+02    0.12500E-01  0.12500E-01 -0.25000E-01  0.00000E+00  0.00000E+00  0.00000E+00    0.16390E+02  0.25071E+02 -0.41461E+02 -0.47117E+00 -0.62300E+01 -0.67029E+01      982.00
  0.48100E-01  0.64823E+02    0.25000E-01  0.25000E-01 -0.50000E-01  0.00000E+00  0.00000E+00  0.00000E+00    0.16040E+02  0.25582E+02 -0.41622E+02 -0.61231E+00 -0.59759E+01 -0.65216E+01      982.00
  0.72178E-01  0.64974E+02    0.37500E-01  0.37500E-01 -0.75000E-01  0.00000E+00  0.00000E+00  0.00000E+00    0.15765E+02  0.26001E+02 -0.41766E+02 -0.72177E+00 -0.57396E+01 -0.62649E+01      982.00
  0.96284E-01  0.64957E+02    0.50000E-01  0.50000E-01 -0.10000E+00  0.00000E+00  0.00000E+00  0.00000E+00    0.15568E+02  0.26254E+02 -0.41822E+02 -0.83470E+00 -0.54847E+01 -0.59443E+01      982.00
  0.12043E+00  0.64940E+02    0.62500E-01  0.62500E-01 -0.12500E+00  0.00000E+00  0.00000E+00  0.00000E+00    0.15382E+02  0.26494E+02 -0.41876E+02 -0.10720E+01 -0.52111E+01 -0.56039E+01      982.00
  0.14461E+00  0.65009E+02    0.75000E-01  0.75000E-01 -0.15000E+00  0.00000E+00  0.00000E+00  0.00000E+00    0.15186E+02  0.26777E+02 -0.41964E+02 -0.14119E+01 -0.49501E+01 -0.52835E+01      982.00
  0.16882E+00  0.65165E+02    0.87500E-01  0.87500E-01 -0.17500E+00  0.00000E+00  0.00000E+00  0.00000E+00    0.15004E+02  0.27081E+02 -0.42086E+02 -0.17783E+01 -0.47288E+01 -0.50108E+01      982.00
  0.19303E+00  0.65383E+02    0.10000E+00  0.10000E+00 -0.20000E+00  0.00000E+00  0.00000E+00  0.00000E+00    0.14842E+02  0.27387E+02 -0.42229E+02 -0.21200E+01 -0.45495E+01 -0.47955E+01      982.00
  0.21725E+00  0.65633E+02    0.11250E+00  0.11250E+00 -0.22500E+00  0.00000E+00  0.00000E+00  0.00000E+00    0.14692E+02  0.27687E+02 -0.42379E+02 -0.24163E+01 -0.44026E+01 -0.46381E+01      982.00
  0.24147E+00  0.65916E+02    0.12500E+00  0.12500E+00 -0.25000E+00  0.00000E+00  0.00000E+00  0.00000E+00    0.14563E+02  0.27978E+02 -0.42540E+02 -0.26603E+01 -0.42871E+01 -0.45362E+01      982.00
  0.26567E+00  0.66210E+02    0.13750E+00  0.13750E+00 -0.27500E+00  0.00000E+00  0.00000E+00  0.00000E+00    0.14454E+02  0.28252E+02 -0.42705E+02 -0.28543E+01 -0.41995E+01 -0.44808E+01      982.00
  0.28986E+00  0.66520E+02    0.15000E+00  0.15000E+00 -0.30000E+00  0.00000E+00  0.00000E+00  0.00000E+00    0.14364E+02  0.28514E+02 -0.42878E+02 -0.30058E+01 -0.41310E+01 -0.44608E+01      982.00
  0.31403E+00  0.66823E+02    0.16250E+00  0.16250E+00 -0.32500E+00  0.00000E+00  0.00000E+00  0.00000E+00    0.14289E+02  0.28758E+02 -0.43047E+02 -0.31206E+01 -0.40781E+01 -0.44694E+01      982.00
  0.33819E+00  0.67114E+02    0.17500E+00  0.17500E+00 -0.35000E+00  0.00000E+00  0.00000E+00  0.00000E+00    0.14234E+02  0.28974E+02 -0.43208E+02 -0.32067E+01 -0.40434E+01 -0.45026E+01      982.00
  0.36233E+00  0.67390E+02    0.18750E+00  0.18750E+00 -0.37500E+00  0.00000E+00  0.00000E+00  0.00000E+00    0.14185E+02  0.29175E+02 -0.43361E+02 -0.32701E+01 -0.40130E+01 -0.45482E+01      982.00
  0.38646E+00  0.67661E+02    0.20000E+00  0.20000E+00 -0.40000E+00  0.00000E+00  0.00000E+00  0.00000E+00    0.14151E+02  0.29362E+02 -0.43513E+02 -0.33167E+01 -0.39919E+01 -0.46057E+01      982.00
  0.41057E+00  0.67912E+02    0.21250E+00  0.21250E+00 -0.42500E+00  0.00000E+00  0.00000E+00  0.00000E+00    0.14127E+02  0.29526E+02 -0.43654E+02 -0.33489E+01 -0.39757E+01 -0.46692E+01      982.00
  0.43468E+00  0.68141E+02    0.22500E+00  0.22500E+00 -0.45000E+00  0.00000E+00  0.00000E+00  0.00000E+00    0.14108E+02  0.29673E+02 -0.43781E+02 -0.33722E+01 -0.39648E+01 -0.47414E+01      982.00
  0.45877E+00  0.68360E+02    0.23750E+00  0.23750E+00 -0.47500E+00  0.00000E+00  0.00000E+00  0.00000E+00    0.14104E+02  0.29800E+02 -0.43904E+02 -0.33869E+01 -0.39650E+01 -0.48183E+01      982.00
  0.48286E+00  0.68549E+02    0.25000E+00  0.25000E+00 -0.50000E+00  0.00000E+00  0.00000E+00  0.00000E+00    0.14097E+02  0.29912E+02 -0.44009E+02 -0.33962E+01 -0.39621E+01 -0.48982E+01      982.00
  0.50693E+00  0.68736E+02    0.26250E+00  0.26250E+00 -0.52500E+00  0.00000E+00  0.00000E+00  0.00000E+00    0.14096E+02  0.30015E+02 -0.44112E+02 -0.34010E+01 -0.39642E+01 -0.49870E+01      982.00
  0.53100E+00  0.68880E+02    0.27500E+00  0.27500E+00 -0.55000E+00  0.00000E+00  0.00000E+00  0.00000E+00    0.14106E+02  0.30087E+02 -0.44193E+02 -0.33978E+01 -0.39692E+01 -0.50552E+01      982.00
  0.55506E+00  0.69041E+02    0.28750E+00  0.28750E+00 -0.57500E+00  0.00000E+00  0.00000E+00  0.00000E+00    0.14116E+02  0.30166E+02 -0.44282E+02 -0.33924E+01 -0.39751E+01 -0.51486E+01      982.00
  0.57911E+00  0.69181E+02    0.30000E+00  0.30000E+00 -0.60000E+00  0.00000E+00  0.00000E+00  0.00000E+00    0.14133E+02  0.30228E+02 -0.44362E+02 -0.33865E+01 -0.39805E+01 -0.52253E+01      982.00
  0.60316E+00  0.69308E+02    0.31250E+00  0.31250E+00 -0.62500E+00  0.00000E+00  0.00000E+00  0.00000E+00    0.14153E+02  0.30281E+02 -0.44434E+02 -0.33798E+01 -0.39863E+01 -0.53003E+01      982.00
  0.62720E+00  0.69419E+02    0.32500E+00  0.32500E+00 -0.65000E+00  0.00000E+00  0.00000E+00  0.00000E+00    0.14170E+02  0.30325E+02 -0.44495E+02 -0.33746E+01 -0.39920E+01 -0.53743E+01      982.00
  0.65123E+00  0.69517E+02    0.33750E+00  0.33750E+00 -0.67500E+00  0.00000E+00  0.00000E+00  0.00000E+00    0.14188E+02  0.30361E+02 -0.44550E+02 -0.33668E+01 -0.39981E+01 -0.54476E+01      982.00
  0.67527E+00  0.69607E+02    0.35000E+00  0.35000E+00 -0.70000E+00  0.00000E+00  0.00000E+00  0.00000E+00    0.14206E+02  0.30392E+02 -0.44598E+02 -0.33586E+01 -0.40022E+01 -0.55202E+01      982.00
  0.69929E+00  0.69697E+02    0.36250E+00  0.36250E+00 -0.72500E+00  0.00000E+00  0.00000E+00  0.00000E+00    0.14227E+02  0.30421E+02 -0.44648E+02 -0.33513E+01 -0.40067E+01 -0.55922E+01      982.00
  0.72331E+00  0.69771E+02    0.37500E+00  0.37500E+00 -0.75000E+00  0.00000E+00  0.00000E+00  0.00000E+00    0.14240E+02  0.30447E+02 -0.44687E+02 -0.33533E+01 -0.40122E+01 -0.56530E+01      982.00
  0.74733E+00  0.69844E+02    0.38750E+00  0.38750E+00 -0.77500E+00  0.00000E+00  0.00000E+00  0.00000E+00    0.14258E+02  0.30468E+02 -0.44726E+02 -0.33470E+01 -0.40146E+01 -0.57225E+01      982.00
  0.77135E+00  0.69904E+02    0.40000E+00  0.40000E+00 -0.80000E+00  0.00000E+00  0.00000E+00  0.00000E+00    0.14275E+02  0.30482E+02 -0.44757E+02 -0.33396E+01 -0.40177E+01 -0.57911E+01      982.00
  0.79536E+00  0.69958E+02    0.41250E+00  0.41250E+00 -0.82500E+00  0.00000E+00  0.00000E+00  0.00000E+00    0.14295E+02  0.30489E+02 -0.44784E+02 -0.33322E+01 -0.40219E+01 -0.58601E+01      982.00
  0.81936E+00  0.70016E+02    0.42500E+00  0.42500E+00 -0.85000E+00  0.00000E+00  0.00000E+00  0.00000E+00    0.14314E+02  0.30500E+02 -0.44814E+02 -0.33245E+01 -0.40242E+01 -0.59269E+01      982.00
  0.84336E+00  0.70051E+02    0.43750E+00  0.43750E+00 -0.87500E+00  0.00000E+00  0.00000E+00  0.00000E+00    0.14331E+02  0.30498E+02 -0.44829E+02 -0.33171E+01 -0.40265E+01 -0.59924E+01      982.00
  0.86736E+00  0.70094E+02    0.45000E+00  0.45000E+00 -0.90000E+00  0.00000E+00  0.00000E+00  0.00000E+00    0.14349E+02  0.30500E+02 -0.44849E+02 -0.33111E+01 -0.40295E+01 -0.60573E+01      982.00
  0.89136E+00  0.70124E+02    0.46250E+00  0.46250E+00 -0.92500E+00  0.00000E+00  0.00000E+00  0.00000E+00    0.14366E+02  0.30496E+02 -0.44862E+02 -0.33035E+01 -0.40305E+01 -0.61194E+01      982.00
  0.91535E+00  0.70114E+02    0.47500E+00  0.47500E+00 -0.95000E+00  0.00000E+00  0.00000E+00  0.00000E+00    0.14381E+02  0.30472E+02 -0.44853E+02 -0.32803E+01 -0.40220E+01 -0.61762E+01      982.00
  0.93934E+00  0.70088E+02    0.48750E+00  0.48750E+00 -0.97500E+00  0.00000E+00  0.00000E+00  0.00000E+00    0.14396E+02  0.30438E+02 -0.44834E+02 -0.32633E+01 -0.40143E+01 -0.62289E+01      982.00
  0.96332E+00  0.70069E+02    0.50000E+00  0.50000E+00 -0.10000E+01  0.00000E+00  0.00000E+00  0.00000E+00    0.14414E+02  0.30405E+02 -0.44819E+02 -0.32473E+01 -0.40066E+01 -0.62809E+01      982.00
