          Evm          Svm            E11          E22          E33          E23          E13          E12         SDEV11       SDEV22       SDEV33       SDEV23       SDEV13       SDEV12      TEMP
  0.00000E+00  0.60080E+02    0.00000E+00  0.00000E+00  0.00000E+00  0.00000E+00  0.00000E+00  0.00000E+00    0.25868E+02  0.11557E+02 -0.37425E+02  0.84275E+01 -0.23461E+01 -0.50010E+01      982.00
  0.23359E-01  0.59979E+02    0.12500E-01  0.12500E-01 -0.25000E-01  0.00000E+00  0.00000E+00  0.00000E+00    0.25902E+02  0.11543E+02 -0.37445E+02  0.82671E+01 -0.22146E+01 -0.47707E+01      982.00
  0.46771E-01  0.59908E+02    0.25000E-01  0.25000E-01 -0.50000E-01  0.00000E+00  0.00000E+00  0.00000E+00    0.25959E+02  0.11517E+02 -0.37476E+02  0.80813E+01 -0.20926E+01 -0.45983E+01      982.00
  0.70229E-01  0.59881E+02    0.37500E-01  0.37500E-01 -0.75000E-01  0.00000E+00  0.00000E+00  0.00000E+00    0.26031E+02  0.11501E+02 -0.37532E+02  0.78927E+01 -0.19364E+01 -0.44663E+01      982.00
  0.93733E-01  0.59889E+02    0.50000E-01  0.50000E-01 -0.10000E+00  0.00000E+00  0.00000E+00  0.00000E+00    0.26110E+02  0.11497E+02 -0.37606E+02  0.77000E+01 -0.17481E+01 -0.43753E+01      982.00
  0.11728E+00  0.59939E+02    0.62500E-01  0.62500E-01 -0.12500E+00  0.00000E+00  0.00000E+00  0.00000E+00    0.26198E+02  0.11508E+02 -0.37706E+02  0.75030E+01 -0.15374E+01 -0.43204E+01      982.00
  0.14087E+00  0.60031E+02    0.75000E-01  0.75000E-01 -0.15000E+00  0.00000E+00  0.00000E+00  0.00000E+00    0.26294E+02  0.11532E+02 -0.37826E+02  0.73107E+01 -0.13184E+01 -0.42937E+01      982.00
  0.16450E+00  0.60185E+02    0.87500E-01  0.87500E-01 -0.17500E+00  0.00000E+00  0.00000E+00  0.00000E+00    0.26412E+02  0.11567E+02 -0.37979E+02  0.71369E+01 -0.11130E+01 -0.42850E+01      982.00
  0.18816E+00  0.60412E+02    0.10000E+00  0.10000E+00 -0.20000E+00  0.00000E+00  0.00000E+00  0.00000E+00    0.26556E+02  0.11611E+02 -0.38167E+02  0.69929E+01 -0.93307E+00 -0.42867E+01      982.00
  0.21186E+00  0.60712E+02    0.11250E+00  0.11250E+00 -0.22500E+00  0.00000E+00  0.00000E+00  0.00000E+00    0.26729E+02  0.11664E+02 -0.38393E+02  0.68821E+01 -0.77746E+00 -0.42931E+01      982.00
  0.23557E+00  0.61072E+02    0.12500E+00  0.12500E+00 -0.25000E+00  0.00000E+00  0.00000E+00  0.00000E+00    0.26923E+02  0.11726E+02 -0.38649E+02  0.68046E+01 -0.65267E+00 -0.42958E+01      982.00
  0.25930E+00  0.61475E+02    0.13750E+00  0.13750E+00 -0.27500E+00  0.00000E+00  0.00000E+00  0.00000E+00    0.27137E+02  0.11789E+02 -0.38926E+02  0.67600E+01 -0.56569E+00 -0.42909E+01      982.00
  0.28305E+00  0.61893E+02    0.15000E+00  0.15000E+00 -0.30000E+00  0.00000E+00  0.00000E+00  0.00000E+00    0.27351E+02  0.11859E+02 -0.39210E+02  0.67334E+01 -0.49379E+00 -0.42707E+01      982.00
  0.30680E+00  0.62325E+02    0.16250E+00  0.16250E+00 -0.32500E+00  0.00000E+00  0.00000E+00  0.00000E+00    0.27570E+02  0.11930E+02 -0.39500E+02  0.67295E+01 -0.44715E+00 -0.42361E+01      982.00
  0.33057E+00  0.62739E+02    0.17500E+00  0.17500E+00 -0.35000E+00  0.00000E+00  0.00000E+00  0.00000E+00    0.27777E+02  0.12004E+02 -0.39781E+02  0.67353E+01 -0.40786E+00 -0.41787E+01      982.00
  0.35435E+00  0.63133E+02    0.18750E+00  0.18750E+00 -0.37500E+00  0.00000E+00  0.00000E+00  0.00000E+00    0.27970E+02  0.12079E+02 -0.40049E+02  0.67432E+01 -0.38584E+00 -0.41115E+01      982.00
  0.37814E+00  0.63521E+02    0.20000E+00  0.20000E+00 -0.40000E+00  0.00000E+00  0.00000E+00  0.00000E+00    0.28158E+02  0.12154E+02 -0.40313E+02  0.67623E+01 -0.37183E+00 -0.40283E+01      982.00
  0.40194E+00  0.63884E+02    0.21250E+00  0.21250E+00 -0.42500E+00  0.00000E+00  0.00000E+00  0.00000E+00    0.28332E+02  0.12230E+02 -0.40562E+02  0.67830E+01 -0.36426E+00 -0.39315E+01      982.00
  0.42575E+00  0.64221E+02    0.22500E+00  0.22500E+00 -0.45000E+00  0.00000E+00  0.00000E+00  0.00000E+00    0.28491E+02  0.12305E+02 -0.40796E+02  0.68038E+01 -0.36202E+00 -0.38234E+01      982.00
  0.44957E+00  0.64532E+02    0.23750E+00  0.23750E+00 -0.47500E+00  0.00000E+00  0.00000E+00  0.00000E+00    0.28635E+02  0.12380E+02 -0.41015E+02  0.68238E+01 -0.36422E+00 -0.37060E+01      982.00
  0.47340E+00  0.64818E+02    0.25000E+00  0.25000E+00 -0.50000E+00  0.00000E+00  0.00000E+00  0.00000E+00    0.28765E+02  0.12453E+02 -0.41217E+02  0.68425E+01 -0.37009E+00 -0.35811E+01      982.00
  0.49725E+00  0.65079E+02    0.26250E+00  0.26250E+00 -0.52500E+00  0.00000E+00  0.00000E+00  0.00000E+00    0.28880E+02  0.12525E+02 -0.41405E+02  0.68598E+01 -0.37902E+00 -0.34501E+01      982.00
  0.52111E+00  0.65318E+02    0.27500E+00  0.27500E+00 -0.55000E+00  0.00000E+00  0.00000E+00  0.00000E+00    0.28983E+02  0.12596E+02 -0.41579E+02  0.68756E+01 -0.39050E+00 -0.33145E+01      982.00
  0.54498E+00  0.65536E+02    0.28750E+00  0.28750E+00 -0.57500E+00  0.00000E+00  0.00000E+00  0.00000E+00    0.29074E+02  0.12665E+02 -0.41739E+02  0.68899E+01 -0.40410E+00 -0.31752E+01      982.00
  0.56886E+00  0.65733E+02    0.30000E+00  0.30000E+00 -0.60000E+00  0.00000E+00  0.00000E+00  0.00000E+00    0.29153E+02  0.12733E+02 -0.41886E+02  0.69028E+01 -0.41963E+00 -0.30327E+01      982.00
  0.59276E+00  0.65905E+02    0.31250E+00  0.31250E+00 -0.62500E+00  0.00000E+00  0.00000E+00  0.00000E+00    0.29216E+02  0.12802E+02 -0.42018E+02  0.69230E+01 -0.43368E+00 -0.28743E+01      982.00
  0.61666E+00  0.66070E+02    0.32500E+00  0.32500E+00 -0.65000E+00  0.00000E+00  0.00000E+00  0.00000E+00    0.29276E+02  0.12868E+02 -0.42144E+02  0.69347E+01 -0.45115E+00 -0.27289E+01      982.00
  0.64058E+00  0.66221E+02    0.33750E+00  0.33750E+00 -0.67500E+00  0.00000E+00  0.00000E+00  0.00000E+00    0.29327E+02  0.12932E+02 -0.42259E+02  0.69450E+01 -0.47017E+00 -0.25832E+01      982.00
  0.66451E+00  0.66357E+02    0.35000E+00  0.35000E+00 -0.70000E+00  0.00000E+00  0.00000E+00  0.00000E+00    0.29370E+02  0.12996E+02 -0.42366E+02  0.69547E+01 -0.49010E+00 -0.24370E+01      982.00
  0.68846E+00  0.66481E+02    0.36250E+00  0.36250E+00 -0.72500E+00  0.00000E+00  0.00000E+00  0.00000E+00    0.29406E+02  0.13058E+02 -0.42464E+02  0.69640E+01 -0.51068E+00 -0.22905E+01      982.00
  0.71241E+00  0.66593E+02    0.37500E+00  0.37500E+00 -0.75000E+00  0.00000E+00  0.00000E+00  0.00000E+00    0.29435E+02  0.13119E+02 -0.42554E+02  0.69731E+01 -0.53176E+00 -0.21439E+01      982.00
  0.73637E+00  0.66686E+02    0.38750E+00  0.38750E+00 -0.77500E+00  0.00000E+00  0.00000E+00  0.00000E+00    0.29455E+02  0.13175E+02 -0.42630E+02  0.69794E+01 -0.55085E+00 -0.20166E+01      982.00
  0.76035E+00  0.66779E+02    0.40000E+00  0.40000E+00 -0.80000E+00  0.00000E+00  0.00000E+00  0.00000E+00    0.29473E+02  0.13234E+02 -0.42707E+02  0.69882E+01 -0.57294E+00 -0.18705E+01      982.00
  0.78433E+00  0.66864E+02    0.41250E+00  0.41250E+00 -0.82500E+00  0.00000E+00  0.00000E+00  0.00000E+00    0.29484E+02  0.13294E+02 -0.42777E+02  0.69977E+01 -0.59500E+00 -0.17245E+01      982.00
  0.80832E+00  0.66940E+02    0.42500E+00  0.42500E+00 -0.85000E+00  0.00000E+00  0.00000E+00  0.00000E+00    0.29490E+02  0.13352E+02 -0.42842E+02  0.70073E+01 -0.61713E+00 -0.15786E+01      982.00
  0.83232E+00  0.67009E+02    0.43750E+00  0.43750E+00 -0.87500E+00  0.00000E+00  0.00000E+00  0.00000E+00    0.29490E+02  0.13411E+02 -0.42901E+02  0.70171E+01 -0.63929E+00 -0.14329E+01      982.00
  0.85633E+00  0.67071E+02    0.45000E+00  0.45000E+00 -0.90000E+00  0.00000E+00  0.00000E+00  0.00000E+00    0.29486E+02  0.13470E+02 -0.42956E+02  0.70271E+01 -0.66143E+00 -0.12874E+01      982.00
  0.88034E+00  0.67048E+02    0.46250E+00  0.46250E+00 -0.92500E+00  0.00000E+00  0.00000E+00  0.00000E+00    0.29449E+02  0.13519E+02 -0.42968E+02  0.69768E+01 -0.67763E+00 -0.11136E+01      982.00
  0.90438E+00  0.67042E+02    0.47500E+00  0.47500E+00 -0.95000E+00  0.00000E+00  0.00000E+00  0.00000E+00    0.29422E+02  0.13560E+02 -0.42982E+02  0.69464E+01 -0.69720E+00 -0.98496E+00      982.00
  0.92842E+00  0.67034E+02    0.48750E+00  0.48750E+00 -0.97500E+00  0.00000E+00  0.00000E+00  0.00000E+00    0.29390E+02  0.13604E+02 -0.42995E+02  0.69232E+01 -0.71587E+00 -0.85344E+00      982.00
  0.95247E+00  0.67026E+02    0.50000E+00  0.50000E+00 -0.10000E+01  0.00000E+00  0.00000E+00  0.00000E+00    0.29356E+02  0.13649E+02 -0.43005E+02  0.69026E+01 -0.73446E+00 -0.72215E+00      982.00
