          Evm          Svm            E11          E22          E33          E23          E13          E12         SDEV11       SDEV22       SDEV33       SDEV23       SDEV13       SDEV12      TEMP
  0.00000E+00  0.57909E+02    0.00000E+00  0.00000E+00  0.00000E+00  0.00000E+00  0.00000E+00  0.00000E+00    0.24901E+02  0.10778E+02 -0.35679E+02  0.79875E+01 -0.30002E+01 -0.63554E+01      982.00
  0.23105E-01  0.57889E+02    0.12500E-01  0.12500E-01 -0.25000E-01  0.00000E+00  0.00000E+00  0.00000E+00    0.24970E+02  0.10788E+02 -0.35758E+02  0.78757E+01 -0.27346E+01 -0.61860E+01      982.00
  0.46269E-01  0.57882E+02    0.25000E-01  0.25000E-01 -0.50000E-01  0.00000E+00  0.00000E+00  0.00000E+00    0.25024E+02  0.10823E+02 -0.35847E+02  0.77335E+01 -0.24467E+01 -0.60672E+01      982.00
  0.69493E-01  0.57900E+02    0.37500E-01  0.37500E-01 -0.75000E-01  0.00000E+00  0.00000E+00  0.00000E+00    0.25066E+02  0.10883E+02 -0.35949E+02  0.75781E+01 -0.21289E+01 -0.59966E+01      982.00
  0.92776E-01  0.57945E+02    0.50000E-01  0.50000E-01 -0.10000E+00  0.00000E+00  0.00000E+00  0.00000E+00    0.25102E+02  0.10964E+02 -0.36066E+02  0.74054E+01 -0.17999E+01 -0.59665E+01      982.00
  0.11612E+00  0.58039E+02    0.62500E-01  0.62500E-01 -0.12500E+00  0.00000E+00  0.00000E+00  0.00000E+00    0.25151E+02  0.11052E+02 -0.36203E+02  0.72293E+01 -0.14891E+01 -0.59716E+01      982.00
  0.13951E+00  0.58206E+02    0.75000E-01  0.75000E-01 -0.15000E+00  0.00000E+00  0.00000E+00  0.00000E+00    0.25232E+02  0.11138E+02 -0.36371E+02  0.70699E+01 -0.12160E+01 -0.60048E+01      982.00
  0.16294E+00  0.58471E+02    0.87500E-01  0.87500E-01 -0.17500E+00  0.00000E+00  0.00000E+00  0.00000E+00    0.25364E+02  0.11218E+02 -0.36582E+02  0.69421E+01 -0.99533E+00 -0.60594E+01      982.00
  0.18640E+00  0.58833E+02    0.10000E+00  0.10000E+00 -0.20000E+00  0.00000E+00  0.00000E+00  0.00000E+00    0.25547E+02  0.11292E+02 -0.36839E+02  0.68500E+01 -0.82478E+00 -0.61264E+01      982.00
  0.20988E+00  0.59275E+02    0.11250E+00  0.11250E+00 -0.22500E+00  0.00000E+00  0.00000E+00  0.00000E+00    0.25774E+02  0.11359E+02 -0.37133E+02  0.67983E+01 -0.70316E+00 -0.61950E+01      982.00
  0.23338E+00  0.59766E+02    0.12500E+00  0.12500E+00 -0.25000E+00  0.00000E+00  0.00000E+00  0.00000E+00    0.26026E+02  0.11427E+02 -0.37453E+02  0.67688E+01 -0.60597E+00 -0.62541E+01      982.00
  0.25688E+00  0.60279E+02    0.13750E+00  0.13750E+00 -0.27500E+00  0.00000E+00  0.00000E+00  0.00000E+00    0.26293E+02  0.11493E+02 -0.37785E+02  0.67622E+01 -0.53183E+00 -0.62949E+01      982.00
  0.28038E+00  0.60812E+02    0.15000E+00  0.15000E+00 -0.30000E+00  0.00000E+00  0.00000E+00  0.00000E+00    0.26573E+02  0.11554E+02 -0.38128E+02  0.67787E+01 -0.48056E+00 -0.63133E+01      982.00
  0.30389E+00  0.61330E+02    0.16250E+00  0.16250E+00 -0.32500E+00  0.00000E+00  0.00000E+00  0.00000E+00    0.26847E+02  0.11616E+02 -0.38463E+02  0.68034E+01 -0.43646E+00 -0.63037E+01      982.00
  0.32741E+00  0.61839E+02    0.17500E+00  0.17500E+00 -0.35000E+00  0.00000E+00  0.00000E+00  0.00000E+00    0.27119E+02  0.11678E+02 -0.38796E+02  0.68366E+01 -0.40595E+00 -0.62679E+01      982.00
  0.35094E+00  0.62322E+02    0.18750E+00  0.18750E+00 -0.37500E+00  0.00000E+00  0.00000E+00  0.00000E+00    0.27379E+02  0.11739E+02 -0.39118E+02  0.68715E+01 -0.38254E+00 -0.62074E+01      982.00
  0.37448E+00  0.62777E+02    0.20000E+00  0.20000E+00 -0.40000E+00  0.00000E+00  0.00000E+00  0.00000E+00    0.27624E+02  0.11801E+02 -0.39425E+02  0.69060E+01 -0.36470E+00 -0.61248E+01      982.00
  0.39803E+00  0.63189E+02    0.21250E+00  0.21250E+00 -0.42500E+00  0.00000E+00  0.00000E+00  0.00000E+00    0.27846E+02  0.11863E+02 -0.39709E+02  0.69296E+01 -0.35118E+00 -0.60272E+01      982.00
  0.42159E+00  0.63585E+02    0.22500E+00  0.22500E+00 -0.45000E+00  0.00000E+00  0.00000E+00  0.00000E+00    0.28061E+02  0.11924E+02 -0.39985E+02  0.69599E+01 -0.34230E+00 -0.59112E+01      982.00
  0.44517E+00  0.63951E+02    0.23750E+00  0.23750E+00 -0.47500E+00  0.00000E+00  0.00000E+00  0.00000E+00    0.28259E+02  0.11985E+02 -0.40244E+02  0.69872E+01 -0.33699E+00 -0.57813E+01      982.00
  0.46877E+00  0.64289E+02    0.25000E+00  0.25000E+00 -0.50000E+00  0.00000E+00  0.00000E+00  0.00000E+00    0.28441E+02  0.12046E+02 -0.40487E+02  0.70111E+01 -0.33498E+00 -0.56407E+01      982.00
  0.49239E+00  0.64599E+02    0.26250E+00  0.26250E+00 -0.52500E+00  0.00000E+00  0.00000E+00  0.00000E+00    0.28608E+02  0.12106E+02 -0.40714E+02  0.70314E+01 -0.33593E+00 -0.54914E+01      982.00
  0.51602E+00  0.64883E+02    0.27500E+00  0.27500E+00 -0.55000E+00  0.00000E+00  0.00000E+00  0.00000E+00    0.28760E+02  0.12166E+02 -0.40926E+02  0.70486E+01 -0.33953E+00 -0.53356E+01      982.00
  0.53968E+00  0.65141E+02    0.28750E+00  0.28750E+00 -0.57500E+00  0.00000E+00  0.00000E+00  0.00000E+00    0.28896E+02  0.12225E+02 -0.41121E+02  0.70642E+01 -0.34381E+00 -0.51736E+01      982.00
  0.56335E+00  0.65383E+02    0.30000E+00  0.30000E+00 -0.60000E+00  0.00000E+00  0.00000E+00  0.00000E+00    0.29023E+02  0.12283E+02 -0.41306E+02  0.70741E+01 -0.35365E+00 -0.50100E+01      982.00
  0.58704E+00  0.65599E+02    0.31250E+00  0.31250E+00 -0.62500E+00  0.00000E+00  0.00000E+00  0.00000E+00    0.29134E+02  0.12341E+02 -0.41475E+02  0.70849E+01 -0.36202E+00 -0.48426E+01      982.00
  0.61075E+00  0.65800E+02    0.32500E+00  0.32500E+00 -0.65000E+00  0.00000E+00  0.00000E+00  0.00000E+00    0.29237E+02  0.12397E+02 -0.41634E+02  0.70924E+01 -0.37356E+00 -0.46748E+01      982.00
  0.63448E+00  0.65984E+02    0.33750E+00  0.33750E+00 -0.67500E+00  0.00000E+00  0.00000E+00  0.00000E+00    0.29328E+02  0.12453E+02 -0.41782E+02  0.70982E+01 -0.38675E+00 -0.45064E+01      982.00
  0.65822E+00  0.66153E+02    0.35000E+00  0.35000E+00 -0.70000E+00  0.00000E+00  0.00000E+00  0.00000E+00    0.29411E+02  0.12508E+02 -0.41919E+02  0.71026E+01 -0.40132E+00 -0.43379E+01      982.00
  0.68198E+00  0.66299E+02    0.36250E+00  0.36250E+00 -0.72500E+00  0.00000E+00  0.00000E+00  0.00000E+00    0.29478E+02  0.12564E+02 -0.42041E+02  0.71146E+01 -0.41368E+00 -0.41570E+01      982.00
  0.70576E+00  0.66441E+02    0.37500E+00  0.37500E+00 -0.75000E+00  0.00000E+00  0.00000E+00  0.00000E+00    0.29543E+02  0.12617E+02 -0.42160E+02  0.71177E+01 -0.43005E+00 -0.39899E+01      982.00
  0.72956E+00  0.66571E+02    0.38750E+00  0.38750E+00 -0.77500E+00  0.00000E+00  0.00000E+00  0.00000E+00    0.29600E+02  0.12670E+02 -0.42270E+02  0.71196E+01 -0.44790E+00 -0.38243E+01      982.00
  0.75337E+00  0.66689E+02    0.40000E+00  0.40000E+00 -0.80000E+00  0.00000E+00  0.00000E+00  0.00000E+00    0.29650E+02  0.12721E+02 -0.42371E+02  0.71211E+01 -0.46664E+00 -0.36598E+01      982.00
  0.77720E+00  0.66797E+02    0.41250E+00  0.41250E+00 -0.82500E+00  0.00000E+00  0.00000E+00  0.00000E+00    0.29693E+02  0.12772E+02 -0.42466E+02  0.71226E+01 -0.48607E+00 -0.34966E+01      982.00
  0.80104E+00  0.66895E+02    0.42500E+00  0.42500E+00 -0.85000E+00  0.00000E+00  0.00000E+00  0.00000E+00    0.29730E+02  0.12822E+02 -0.42553E+02  0.71242E+01 -0.50607E+00 -0.33346E+01      982.00
  0.82489E+00  0.66985E+02    0.43750E+00  0.43750E+00 -0.87500E+00  0.00000E+00  0.00000E+00  0.00000E+00    0.29762E+02  0.12872E+02 -0.42633E+02  0.71261E+01 -0.52652E+00 -0.31738E+01      982.00
  0.84876E+00  0.67061E+02    0.45000E+00  0.45000E+00 -0.90000E+00  0.00000E+00  0.00000E+00  0.00000E+00    0.29782E+02  0.12924E+02 -0.42706E+02  0.71344E+01 -0.54844E+00 -0.29922E+01      982.00
  0.87264E+00  0.67057E+02    0.46250E+00  0.46250E+00 -0.92500E+00  0.00000E+00  0.00000E+00  0.00000E+00    0.29783E+02  0.12956E+02 -0.42740E+02  0.70535E+01 -0.57192E+00 -0.28292E+01      982.00
  0.89654E+00  0.67062E+02    0.47500E+00  0.47500E+00 -0.95000E+00  0.00000E+00  0.00000E+00  0.00000E+00    0.29778E+02  0.12986E+02 -0.42764E+02  0.70225E+01 -0.58309E+00 -0.27129E+01      982.00
  0.92045E+00  0.67070E+02    0.48750E+00  0.48750E+00 -0.97500E+00  0.00000E+00  0.00000E+00  0.00000E+00    0.29773E+02  0.13020E+02 -0.42794E+02  0.69896E+01 -0.60380E+00 -0.25723E+01      982.00
  0.94438E+00  0.67076E+02    0.50000E+00  0.50000E+00 -0.10000E+01  0.00000E+00  0.00000E+00  0.00000E+00    0.29765E+02  0.13055E+02 -0.42820E+02  0.69611E+01 -0.62341E+00 -0.24315E+01      982.00
