          Evm          Svm            E11          E22          E33          E23          E13          E12         SDEV11       SDEV22       SDEV33       SDEV23       SDEV13       SDEV12      TEMP
  0.00000E+00  0.56582E+02    0.00000E+00  0.00000E+00  0.00000E+00  0.00000E+00  0.00000E+00  0.00000E+00    0.18643E+02  0.15145E+02 -0.33788E+02 -0.16163E+01  0.52213E+01  0.13343E+02      982.00
  0.22393E-01  0.56560E+02    0.12500E-01  0.12500E-01 -0.25000E-01  0.00000E+00  0.00000E+00  0.00000E+00    0.18287E+02  0.15509E+02 -0.33796E+02 -0.18162E+01  0.47661E+01  0.13482E+02      982.00
  0.44800E-01  0.56656E+02    0.25000E-01  0.25000E-01 -0.50000E-01  0.00000E+00  0.00000E+00  0.00000E+00    0.18054E+02  0.15789E+02 -0.33843E+02 -0.19598E+01  0.44052E+01  0.13654E+02      982.00
  0.67201E-01  0.56866E+02    0.37500E-01  0.37500E-01 -0.75000E-01  0.00000E+00  0.00000E+00  0.00000E+00    0.17910E+02  0.16022E+02 -0.33932E+02 -0.20721E+01  0.40965E+01  0.13871E+02      982.00
  0.89577E-01  0.57168E+02    0.50000E-01  0.50000E-01 -0.10000E+00  0.00000E+00  0.00000E+00  0.00000E+00    0.17835E+02  0.16223E+02 -0.34057E+02 -0.21609E+01  0.38270E+01  0.14125E+02      982.00
  0.11192E+00  0.57542E+02    0.62500E-01  0.62500E-01 -0.12500E+00  0.00000E+00  0.00000E+00  0.00000E+00    0.17811E+02  0.16400E+02 -0.34212E+02 -0.22305E+01  0.35915E+01  0.14404E+02      982.00
  0.13421E+00  0.57964E+02    0.75000E-01  0.75000E-01 -0.15000E+00  0.00000E+00  0.00000E+00  0.00000E+00    0.17826E+02  0.16562E+02 -0.34388E+02 -0.22848E+01  0.33856E+01  0.14696E+02      982.00
  0.15646E+00  0.58416E+02    0.87500E-01  0.87500E-01 -0.17500E+00  0.00000E+00  0.00000E+00  0.00000E+00    0.17868E+02  0.16710E+02 -0.34578E+02 -0.23224E+01  0.32079E+01  0.14991E+02      982.00
  0.17866E+00  0.58881E+02    0.10000E+00  0.10000E+00 -0.20000E+00  0.00000E+00  0.00000E+00  0.00000E+00    0.17922E+02  0.16855E+02 -0.34777E+02 -0.23536E+01  0.30505E+01  0.15280E+02      982.00
  0.20081E+00  0.59344E+02    0.11250E+00  0.11250E+00 -0.22500E+00  0.00000E+00  0.00000E+00  0.00000E+00    0.17983E+02  0.16995E+02 -0.34978E+02 -0.23769E+01  0.29121E+01  0.15555E+02      982.00
  0.22291E+00  0.59794E+02    0.12500E+00  0.12500E+00 -0.25000E+00  0.00000E+00  0.00000E+00  0.00000E+00    0.18047E+02  0.17130E+02 -0.35177E+02 -0.23936E+01  0.27892E+01  0.15811E+02      982.00
  0.24497E+00  0.60238E+02    0.13750E+00  0.13750E+00 -0.27500E+00  0.00000E+00  0.00000E+00  0.00000E+00    0.18115E+02  0.17260E+02 -0.35375E+02 -0.24005E+01  0.26875E+01  0.16057E+02      982.00
  0.26699E+00  0.60661E+02    0.15000E+00  0.15000E+00 -0.30000E+00  0.00000E+00  0.00000E+00  0.00000E+00    0.18180E+02  0.17387E+02 -0.35567E+02 -0.24035E+01  0.25989E+01  0.16283E+02      982.00
  0.28898E+00  0.61050E+02    0.16250E+00  0.16250E+00 -0.32500E+00  0.00000E+00  0.00000E+00  0.00000E+00    0.18236E+02  0.17512E+02 -0.35747E+02 -0.24065E+01  0.25152E+01  0.16483E+02      982.00
  0.31094E+00  0.61425E+02    0.17500E+00  0.17500E+00 -0.35000E+00  0.00000E+00  0.00000E+00  0.00000E+00    0.18292E+02  0.17631E+02 -0.35923E+02 -0.24039E+01  0.24479E+01  0.16671E+02      982.00
  0.33287E+00  0.61764E+02    0.18750E+00  0.18750E+00 -0.37500E+00  0.00000E+00  0.00000E+00  0.00000E+00    0.18338E+02  0.17747E+02 -0.36086E+02 -0.24010E+01  0.23809E+01  0.16836E+02      982.00
  0.35478E+00  0.62088E+02    0.20000E+00  0.20000E+00 -0.40000E+00  0.00000E+00  0.00000E+00  0.00000E+00    0.18386E+02  0.17857E+02 -0.36243E+02 -0.23945E+01  0.23294E+01  0.16988E+02      982.00
  0.37667E+00  0.62387E+02    0.21250E+00  0.21250E+00 -0.42500E+00  0.00000E+00  0.00000E+00  0.00000E+00    0.18430E+02  0.17961E+02 -0.36391E+02 -0.23865E+01  0.22840E+01  0.17124E+02      982.00
  0.39854E+00  0.62660E+02    0.22500E+00  0.22500E+00 -0.45000E+00  0.00000E+00  0.00000E+00  0.00000E+00    0.18464E+02  0.18063E+02 -0.36527E+02 -0.23770E+01  0.22350E+01  0.17246E+02      982.00
  0.42040E+00  0.62909E+02    0.23750E+00  0.23750E+00 -0.47500E+00  0.00000E+00  0.00000E+00  0.00000E+00    0.18507E+02  0.18150E+02 -0.36657E+02 -0.23660E+01  0.22083E+01  0.17346E+02      982.00
  0.44225E+00  0.63143E+02    0.25000E+00  0.25000E+00 -0.50000E+00  0.00000E+00  0.00000E+00  0.00000E+00    0.18535E+02  0.18241E+02 -0.36775E+02 -0.23552E+01  0.21670E+01  0.17447E+02      982.00
  0.46409E+00  0.63331E+02    0.26250E+00  0.26250E+00 -0.52500E+00  0.00000E+00  0.00000E+00  0.00000E+00    0.18561E+02  0.18315E+02 -0.36876E+02 -0.23433E+01  0.21392E+01  0.17521E+02      982.00
  0.48593E+00  0.63531E+02    0.27500E+00  0.27500E+00 -0.55000E+00  0.00000E+00  0.00000E+00  0.00000E+00    0.18592E+02  0.18391E+02 -0.36983E+02 -0.23313E+01  0.21130E+01  0.17598E+02      982.00
  0.50776E+00  0.63707E+02    0.28750E+00  0.28750E+00 -0.57500E+00  0.00000E+00  0.00000E+00  0.00000E+00    0.18612E+02  0.18463E+02 -0.37075E+02 -0.23180E+01  0.20821E+01  0.17669E+02      982.00
  0.52958E+00  0.63877E+02    0.30000E+00  0.30000E+00 -0.60000E+00  0.00000E+00  0.00000E+00  0.00000E+00    0.18640E+02  0.18529E+02 -0.37169E+02 -0.23059E+01  0.20601E+01  0.17731E+02      982.00
  0.55140E+00  0.64033E+02    0.31250E+00  0.31250E+00 -0.62500E+00  0.00000E+00  0.00000E+00  0.00000E+00    0.18667E+02  0.18589E+02 -0.37256E+02 -0.22934E+01  0.20402E+01  0.17785E+02      982.00
  0.57322E+00  0.64188E+02    0.32500E+00  0.32500E+00 -0.65000E+00  0.00000E+00  0.00000E+00  0.00000E+00    0.18689E+02  0.18653E+02 -0.37342E+02 -0.22768E+01  0.20134E+01  0.17842E+02      982.00
  0.59504E+00  0.64319E+02    0.33750E+00  0.33750E+00 -0.67500E+00  0.00000E+00  0.00000E+00  0.00000E+00    0.18714E+02  0.18703E+02 -0.37417E+02 -0.22645E+01  0.19956E+01  0.17884E+02      982.00
  0.61685E+00  0.64439E+02    0.35000E+00  0.35000E+00 -0.70000E+00  0.00000E+00  0.00000E+00  0.00000E+00    0.18738E+02  0.18748E+02 -0.37487E+02 -0.22527E+01  0.19798E+01  0.17922E+02      982.00
  0.63867E+00  0.64549E+02    0.36250E+00  0.36250E+00 -0.72500E+00  0.00000E+00  0.00000E+00  0.00000E+00    0.18762E+02  0.18790E+02 -0.37552E+02 -0.22412E+01  0.19652E+01  0.17955E+02      982.00
  0.66048E+00  0.64652E+02    0.37500E+00  0.37500E+00 -0.75000E+00  0.00000E+00  0.00000E+00  0.00000E+00    0.18786E+02  0.18827E+02 -0.37613E+02 -0.22301E+01  0.19515E+01  0.17985E+02      982.00
  0.68230E+00  0.64746E+02    0.38750E+00  0.38750E+00 -0.77500E+00  0.00000E+00  0.00000E+00  0.00000E+00    0.18809E+02  0.18861E+02 -0.37670E+02 -0.22195E+01  0.19386E+01  0.18012E+02      982.00
  0.70412E+00  0.64834E+02    0.40000E+00  0.40000E+00 -0.80000E+00  0.00000E+00  0.00000E+00  0.00000E+00    0.18832E+02  0.18891E+02 -0.37723E+02 -0.22095E+01  0.19264E+01  0.18036E+02      982.00
  0.72594E+00  0.64930E+02    0.41250E+00  0.41250E+00 -0.82500E+00  0.00000E+00  0.00000E+00  0.00000E+00    0.18857E+02  0.18924E+02 -0.37780E+02 -0.21935E+01  0.19059E+01  0.18065E+02      982.00
  0.74776E+00  0.64981E+02    0.42500E+00  0.42500E+00 -0.85000E+00  0.00000E+00  0.00000E+00  0.00000E+00    0.18871E+02  0.18940E+02 -0.37811E+02 -0.21876E+01  0.18974E+01  0.18079E+02      982.00
  0.76958E+00  0.65055E+02    0.43750E+00  0.43750E+00 -0.87500E+00  0.00000E+00  0.00000E+00  0.00000E+00    0.18896E+02  0.18961E+02 -0.37857E+02 -0.21799E+01  0.18879E+01  0.18097E+02      982.00
  0.79140E+00  0.65119E+02    0.45000E+00  0.45000E+00 -0.90000E+00  0.00000E+00  0.00000E+00  0.00000E+00    0.18918E+02  0.18980E+02 -0.37898E+02 -0.21721E+01  0.18782E+01  0.18113E+02      982.00
  0.81322E+00  0.65180E+02    0.46250E+00  0.46250E+00 -0.92500E+00  0.00000E+00  0.00000E+00  0.00000E+00    0.18941E+02  0.18996E+02 -0.37937E+02 -0.21648E+01  0.18688E+01  0.18127E+02      982.00
  0.83505E+00  0.65238E+02    0.47500E+00  0.47500E+00 -0.95000E+00  0.00000E+00  0.00000E+00  0.00000E+00    0.18964E+02  0.19009E+02 -0.37973E+02 -0.21581E+01  0.18599E+01  0.18140E+02      982.00
  0.85688E+00  0.65291E+02    0.48750E+00  0.48750E+00 -0.97500E+00  0.00000E+00  0.00000E+00  0.00000E+00    0.18986E+02  0.19021E+02 -0.38007E+02 -0.21520E+01  0.18513E+01  0.18152E+02      982.00
  0.87871E+00  0.65313E+02    0.50000E+00  0.50000E+00 -0.10000E+01  0.00000E+00  0.00000E+00  0.00000E+00    0.19004E+02  0.19020E+02 -0.38024E+02 -0.21337E+01  0.18385E+01  0.18155E+02      982.00
