          Evm          Svm            E11          E22          E33          E23          E13          E12         SDEV11       SDEV22       SDEV33       SDEV23       SDEV13       SDEV12      TEMP
  0.00000E+00  0.62650E+02    0.00000E+00  0.00000E+00  0.00000E+00  0.00000E+00  0.00000E+00  0.00000E+00    0.25278E+02  0.14628E+02 -0.39906E+02 -0.26988E+01 -0.46677E+01 -0.75211E+01      982.00
  0.23886E-01  0.62988E+02    0.12500E-01  0.12500E-01 -0.25000E-01  0.00000E+00  0.00000E+00  0.00000E+00    0.25386E+02  0.14763E+02 -0.40149E+02 -0.26733E+01 -0.46922E+01 -0.74920E+01      982.00
  0.47789E-01  0.63079E+02    0.25000E-01  0.25000E-01 -0.50000E-01  0.00000E+00  0.00000E+00  0.00000E+00    0.25236E+02  0.15053E+02 -0.40289E+02 -0.27620E+01 -0.45871E+01 -0.73698E+01      982.00
  0.71741E-01  0.63023E+02    0.37500E-01  0.37500E-01 -0.75000E-01  0.00000E+00  0.00000E+00  0.00000E+00    0.25035E+02  0.15298E+02 -0.40333E+02 -0.27568E+01 -0.45549E+01 -0.72011E+01      982.00
  0.95740E-01  0.63109E+02    0.50000E-01  0.50000E-01 -0.10000E+00  0.00000E+00  0.00000E+00  0.00000E+00    0.25029E+02  0.15400E+02 -0.40429E+02 -0.25970E+01 -0.46952E+01 -0.70550E+01      982.00
  0.11976E+00  0.63269E+02    0.62500E-01  0.62500E-01 -0.12500E+00  0.00000E+00  0.00000E+00  0.00000E+00    0.25102E+02  0.15451E+02 -0.40553E+02 -0.24086E+01 -0.48946E+01 -0.69205E+01      982.00
  0.14380E+00  0.63540E+02    0.75000E-01  0.75000E-01 -0.15000E+00  0.00000E+00  0.00000E+00  0.00000E+00    0.25263E+02  0.15467E+02 -0.40729E+02 -0.22304E+01 -0.51036E+01 -0.68254E+01      982.00
  0.16784E+00  0.63851E+02    0.87500E-01  0.87500E-01 -0.17500E+00  0.00000E+00  0.00000E+00  0.00000E+00    0.25479E+02  0.15442E+02 -0.40921E+02 -0.20668E+01 -0.52867E+01 -0.67595E+01      982.00
  0.19187E+00  0.64207E+02    0.10000E+00  0.10000E+00 -0.20000E+00  0.00000E+00  0.00000E+00  0.00000E+00    0.25727E+02  0.15410E+02 -0.41137E+02 -0.19336E+01 -0.54291E+01 -0.67191E+01      982.00
  0.21590E+00  0.64590E+02    0.11250E+00  0.11250E+00 -0.22500E+00  0.00000E+00  0.00000E+00  0.00000E+00    0.26004E+02  0.15364E+02 -0.41368E+02 -0.18204E+01 -0.55360E+01 -0.66994E+01      982.00
  0.23991E+00  0.64987E+02    0.12500E+00  0.12500E+00 -0.25000E+00  0.00000E+00  0.00000E+00  0.00000E+00    0.26287E+02  0.15320E+02 -0.41607E+02 -0.17333E+01 -0.56078E+01 -0.66973E+01      982.00
  0.26392E+00  0.65403E+02    0.13750E+00  0.13750E+00 -0.27500E+00  0.00000E+00  0.00000E+00  0.00000E+00    0.26583E+02  0.15277E+02 -0.41860E+02 -0.16606E+01 -0.56532E+01 -0.67064E+01      982.00
  0.28792E+00  0.65812E+02    0.15000E+00  0.15000E+00 -0.30000E+00  0.00000E+00  0.00000E+00  0.00000E+00    0.26876E+02  0.15233E+02 -0.42110E+02 -0.16030E+01 -0.56761E+01 -0.67210E+01      982.00
  0.31192E+00  0.66215E+02    0.16250E+00  0.16250E+00 -0.32500E+00  0.00000E+00  0.00000E+00  0.00000E+00    0.27154E+02  0.15203E+02 -0.42357E+02 -0.15645E+01 -0.56812E+01 -0.67433E+01      982.00
  0.33591E+00  0.66609E+02    0.17500E+00  0.17500E+00 -0.35000E+00  0.00000E+00  0.00000E+00  0.00000E+00    0.27425E+02  0.15176E+02 -0.42601E+02 -0.15318E+01 -0.56725E+01 -0.67635E+01      982.00
  0.35989E+00  0.66973E+02    0.18750E+00  0.18750E+00 -0.37500E+00  0.00000E+00  0.00000E+00  0.00000E+00    0.27678E+02  0.15149E+02 -0.42827E+02 -0.15072E+01 -0.56540E+01 -0.67821E+01      982.00
  0.38387E+00  0.67329E+02    0.20000E+00  0.20000E+00 -0.40000E+00  0.00000E+00  0.00000E+00  0.00000E+00    0.27909E+02  0.15144E+02 -0.43054E+02 -0.14966E+01 -0.56245E+01 -0.67988E+01      982.00
  0.40785E+00  0.67658E+02    0.21250E+00  0.21250E+00 -0.42500E+00  0.00000E+00  0.00000E+00  0.00000E+00    0.28131E+02  0.15132E+02 -0.43263E+02 -0.14859E+01 -0.55915E+01 -0.68116E+01      982.00
  0.43183E+00  0.67953E+02    0.22500E+00  0.22500E+00 -0.45000E+00  0.00000E+00  0.00000E+00  0.00000E+00    0.28326E+02  0.15127E+02 -0.43453E+02 -0.14792E+01 -0.55539E+01 -0.68205E+01      982.00
  0.45581E+00  0.68248E+02    0.23750E+00  0.23750E+00 -0.47500E+00  0.00000E+00  0.00000E+00  0.00000E+00    0.28508E+02  0.15139E+02 -0.43646E+02 -0.14828E+01 -0.55096E+01 -0.68266E+01      982.00
  0.47979E+00  0.68518E+02    0.25000E+00  0.25000E+00 -0.50000E+00  0.00000E+00  0.00000E+00  0.00000E+00    0.28683E+02  0.15140E+02 -0.43823E+02 -0.14849E+01 -0.54660E+01 -0.68278E+01      982.00
  0.50377E+00  0.68775E+02    0.26250E+00  0.26250E+00 -0.52500E+00  0.00000E+00  0.00000E+00  0.00000E+00    0.28851E+02  0.15143E+02 -0.43994E+02 -0.14907E+01 -0.54159E+01 -0.68211E+01      982.00
  0.52776E+00  0.69002E+02    0.27500E+00  0.27500E+00 -0.55000E+00  0.00000E+00  0.00000E+00  0.00000E+00    0.28986E+02  0.15163E+02 -0.44149E+02 -0.15003E+01 -0.53661E+01 -0.68160E+01      982.00
  0.55176E+00  0.69206E+02    0.28750E+00  0.28750E+00 -0.57500E+00  0.00000E+00  0.00000E+00  0.00000E+00    0.29109E+02  0.15179E+02 -0.44288E+02 -0.15096E+01 -0.53169E+01 -0.68086E+01      982.00
  0.57575E+00  0.69420E+02    0.30000E+00  0.30000E+00 -0.60000E+00  0.00000E+00  0.00000E+00  0.00000E+00    0.29243E+02  0.15194E+02 -0.44438E+02 -0.15209E+01 -0.52530E+01 -0.67896E+01      982.00
  0.59976E+00  0.69590E+02    0.31250E+00  0.31250E+00 -0.62500E+00  0.00000E+00  0.00000E+00  0.00000E+00    0.29344E+02  0.15213E+02 -0.44557E+02 -0.15304E+01 -0.52019E+01 -0.67768E+01      982.00
  0.62377E+00  0.69750E+02    0.32500E+00  0.32500E+00 -0.65000E+00  0.00000E+00  0.00000E+00  0.00000E+00    0.29437E+02  0.15234E+02 -0.44671E+02 -0.15406E+01 -0.51517E+01 -0.67629E+01      982.00
  0.64779E+00  0.69901E+02    0.33750E+00  0.33750E+00 -0.67500E+00  0.00000E+00  0.00000E+00  0.00000E+00    0.29524E+02  0.15254E+02 -0.44778E+02 -0.15513E+01 -0.51044E+01 -0.67490E+01      982.00
  0.67181E+00  0.70033E+02    0.35000E+00  0.35000E+00 -0.70000E+00  0.00000E+00  0.00000E+00  0.00000E+00    0.29601E+02  0.15272E+02 -0.44873E+02 -0.15604E+01 -0.50563E+01 -0.67318E+01      982.00
  0.69584E+00  0.70142E+02    0.36250E+00  0.36250E+00 -0.72500E+00  0.00000E+00  0.00000E+00  0.00000E+00    0.29664E+02  0.15286E+02 -0.44950E+02 -0.15690E+01 -0.50229E+01 -0.67234E+01      982.00
  0.71987E+00  0.70258E+02    0.37500E+00  0.37500E+00 -0.75000E+00  0.00000E+00  0.00000E+00  0.00000E+00    0.29733E+02  0.15302E+02 -0.45035E+02 -0.15780E+01 -0.49778E+01 -0.67064E+01      982.00
  0.74390E+00  0.70369E+02    0.38750E+00  0.38750E+00 -0.77500E+00  0.00000E+00  0.00000E+00  0.00000E+00    0.29799E+02  0.15317E+02 -0.45116E+02 -0.15852E+01 -0.49339E+01 -0.66889E+01      982.00
  0.76795E+00  0.70465E+02    0.40000E+00  0.40000E+00 -0.80000E+00  0.00000E+00  0.00000E+00  0.00000E+00    0.29858E+02  0.15329E+02 -0.45187E+02 -0.15927E+01 -0.48908E+01 -0.66694E+01      982.00
  0.79199E+00  0.70559E+02    0.41250E+00  0.41250E+00 -0.82500E+00  0.00000E+00  0.00000E+00  0.00000E+00    0.29910E+02  0.15343E+02 -0.45254E+02 -0.15962E+01 -0.48612E+01 -0.66615E+01      982.00
  0.81605E+00  0.70644E+02    0.42500E+00  0.42500E+00 -0.85000E+00  0.00000E+00  0.00000E+00  0.00000E+00    0.29968E+02  0.15351E+02 -0.45319E+02 -0.16048E+01 -0.48111E+01 -0.66328E+01      982.00
  0.84010E+00  0.70720E+02    0.43750E+00  0.43750E+00 -0.87500E+00  0.00000E+00  0.00000E+00  0.00000E+00    0.30014E+02  0.15360E+02 -0.45374E+02 -0.16075E+01 -0.47836E+01 -0.66227E+01      982.00
  0.86416E+00  0.70735E+02    0.45000E+00  0.45000E+00 -0.90000E+00  0.00000E+00  0.00000E+00  0.00000E+00    0.30026E+02  0.15370E+02 -0.45396E+02 -0.16110E+01 -0.47303E+01 -0.65976E+01      982.00
  0.88823E+00  0.70745E+02    0.46250E+00  0.46250E+00 -0.92500E+00  0.00000E+00  0.00000E+00  0.00000E+00    0.30037E+02  0.15378E+02 -0.45415E+02 -0.16121E+01 -0.46786E+01 -0.65710E+01      982.00
  0.91230E+00  0.70756E+02    0.47500E+00  0.47500E+00 -0.95000E+00  0.00000E+00  0.00000E+00  0.00000E+00    0.30048E+02  0.15387E+02 -0.45435E+02 -0.16124E+01 -0.46273E+01 -0.65452E+01      982.00
  0.93638E+00  0.70756E+02    0.48750E+00  0.48750E+00 -0.97500E+00  0.00000E+00  0.00000E+00  0.00000E+00    0.30056E+02  0.15389E+02 -0.45445E+02 -0.16130E+01 -0.45801E+01 -0.65214E+01      982.00
  0.96047E+00  0.70760E+02    0.50000E+00  0.50000E+00 -0.10000E+01  0.00000E+00  0.00000E+00  0.00000E+00    0.30066E+02  0.15392E+02 -0.45458E+02 -0.16129E+01 -0.45339E+01 -0.64972E+01      982.00
