          Evm          Svm            E11          E22          E33          E23          E13          E12         SDEV11       SDEV22       SDEV33       SDEV23       SDEV13       SDEV12      TEMP
  0.00000E+00  0.57686E+02    0.00000E+00  0.00000E+00  0.00000E+00  0.00000E+00  0.00000E+00  0.00000E+00    0.18974E+02  0.16269E+02 -0.35243E+02 -0.16528E+01  0.34301E+01  0.12702E+02      982.00
  0.22911E-01  0.57702E+02    0.12500E-01  0.12500E-01 -0.25000E-01  0.00000E+00  0.00000E+00  0.00000E+00    0.18630E+02  0.16569E+02 -0.35199E+02 -0.18590E+01  0.32275E+01  0.12871E+02      982.00
  0.45786E-01  0.57812E+02    0.25000E-01  0.25000E-01 -0.50000E-01  0.00000E+00  0.00000E+00  0.00000E+00    0.18409E+02  0.16785E+02 -0.35194E+02 -0.20016E+01  0.30851E+01  0.13074E+02      982.00
  0.68615E-01  0.58005E+02    0.37500E-01  0.37500E-01 -0.75000E-01  0.00000E+00  0.00000E+00  0.00000E+00    0.18251E+02  0.16975E+02 -0.35226E+02 -0.21165E+01  0.29566E+01  0.13313E+02      982.00
  0.91388E-01  0.58260E+02    0.50000E-01  0.50000E-01 -0.10000E+00  0.00000E+00  0.00000E+00  0.00000E+00    0.18156E+02  0.17130E+02 -0.35286E+02 -0.21987E+01  0.28464E+01  0.13579E+02      982.00
  0.11410E+00  0.58568E+02    0.62500E-01  0.62500E-01 -0.12500E+00  0.00000E+00  0.00000E+00  0.00000E+00    0.18102E+02  0.17270E+02 -0.35371E+02 -0.22584E+01  0.27432E+01  0.13865E+02      982.00
  0.13675E+00  0.58911E+02    0.75000E-01  0.75000E-01 -0.15000E+00  0.00000E+00  0.00000E+00  0.00000E+00    0.18080E+02  0.17395E+02 -0.35475E+02 -0.22973E+01  0.26466E+01  0.14162E+02      982.00
  0.15933E+00  0.59279E+02    0.87500E-01  0.87500E-01 -0.17500E+00  0.00000E+00  0.00000E+00  0.00000E+00    0.18083E+02  0.17511E+02 -0.35594E+02 -0.23190E+01  0.25552E+01  0.14462E+02      982.00
  0.18185E+00  0.59661E+02    0.10000E+00  0.10000E+00 -0.20000E+00  0.00000E+00  0.00000E+00  0.00000E+00    0.18103E+02  0.17621E+02 -0.35724E+02 -0.23259E+01  0.24706E+01  0.14757E+02      982.00
  0.20430E+00  0.60040E+02    0.11250E+00  0.11250E+00 -0.22500E+00  0.00000E+00  0.00000E+00  0.00000E+00    0.18132E+02  0.17725E+02 -0.35858E+02 -0.23231E+01  0.23883E+01  0.15038E+02      982.00
  0.22670E+00  0.60424E+02    0.12500E+00  0.12500E+00 -0.25000E+00  0.00000E+00  0.00000E+00  0.00000E+00    0.18173E+02  0.17824E+02 -0.35997E+02 -0.23083E+01  0.23142E+01  0.15313E+02      982.00
  0.24904E+00  0.60790E+02    0.13750E+00  0.13750E+00 -0.27500E+00  0.00000E+00  0.00000E+00  0.00000E+00    0.18212E+02  0.17922E+02 -0.36135E+02 -0.22917E+01  0.22413E+01  0.15563E+02      982.00
  0.27133E+00  0.61152E+02    0.15000E+00  0.15000E+00 -0.30000E+00  0.00000E+00  0.00000E+00  0.00000E+00    0.18258E+02  0.18015E+02 -0.36273E+02 -0.22691E+01  0.21789E+01  0.15805E+02      982.00
  0.29357E+00  0.61489E+02    0.16250E+00  0.16250E+00 -0.32500E+00  0.00000E+00  0.00000E+00  0.00000E+00    0.18299E+02  0.18108E+02 -0.36406E+02 -0.22464E+01  0.21159E+01  0.16022E+02      982.00
  0.31578E+00  0.61816E+02    0.17500E+00  0.17500E+00 -0.35000E+00  0.00000E+00  0.00000E+00  0.00000E+00    0.18344E+02  0.18194E+02 -0.36537E+02 -0.22232E+01  0.20662E+01  0.16226E+02      982.00
  0.33794E+00  0.62121E+02    0.18750E+00  0.18750E+00 -0.37500E+00  0.00000E+00  0.00000E+00  0.00000E+00    0.18382E+02  0.18279E+02 -0.36661E+02 -0.21983E+01  0.20125E+01  0.16414E+02      982.00
  0.36007E+00  0.62393E+02    0.20000E+00  0.20000E+00 -0.40000E+00  0.00000E+00  0.00000E+00  0.00000E+00    0.18427E+02  0.18350E+02 -0.36777E+02 -0.21810E+01  0.19865E+01  0.16570E+02      982.00
  0.38217E+00  0.62661E+02    0.21250E+00  0.21250E+00 -0.42500E+00  0.00000E+00  0.00000E+00  0.00000E+00    0.18467E+02  0.18423E+02 -0.36890E+02 -0.21618E+01  0.19528E+01  0.16723E+02      982.00
  0.40425E+00  0.62890E+02    0.22500E+00  0.22500E+00 -0.45000E+00  0.00000E+00  0.00000E+00  0.00000E+00    0.18497E+02  0.18491E+02 -0.36988E+02 -0.21433E+01  0.19169E+01  0.16853E+02      982.00
  0.42631E+00  0.63121E+02    0.23750E+00  0.23750E+00 -0.47500E+00  0.00000E+00  0.00000E+00  0.00000E+00    0.18534E+02  0.18556E+02 -0.37090E+02 -0.21285E+01  0.18916E+01  0.16978E+02      982.00
  0.44834E+00  0.63330E+02    0.25000E+00  0.25000E+00 -0.50000E+00  0.00000E+00  0.00000E+00  0.00000E+00    0.18563E+02  0.18618E+02 -0.37181E+02 -0.21115E+01  0.18614E+01  0.17093E+02      982.00
  0.47036E+00  0.63517E+02    0.26250E+00  0.26250E+00 -0.52500E+00  0.00000E+00  0.00000E+00  0.00000E+00    0.18593E+02  0.18671E+02 -0.37265E+02 -0.21000E+01  0.18419E+01  0.17191E+02      982.00
  0.49236E+00  0.63721E+02    0.27500E+00  0.27500E+00 -0.55000E+00  0.00000E+00  0.00000E+00  0.00000E+00    0.18626E+02  0.18730E+02 -0.37355E+02 -0.20842E+01  0.18161E+01  0.17299E+02      982.00
  0.51434E+00  0.63885E+02    0.28750E+00  0.28750E+00 -0.57500E+00  0.00000E+00  0.00000E+00  0.00000E+00    0.18656E+02  0.18776E+02 -0.37432E+02 -0.20761E+01  0.18025E+01  0.17378E+02      982.00
  0.53631E+00  0.64035E+02    0.30000E+00  0.30000E+00 -0.60000E+00  0.00000E+00  0.00000E+00  0.00000E+00    0.18685E+02  0.18817E+02 -0.37503E+02 -0.20693E+01  0.17916E+01  0.17450E+02      982.00
  0.55828E+00  0.64174E+02    0.31250E+00  0.31250E+00 -0.62500E+00  0.00000E+00  0.00000E+00  0.00000E+00    0.18714E+02  0.18855E+02 -0.37569E+02 -0.20634E+01  0.17821E+01  0.17515E+02      982.00
  0.58023E+00  0.64302E+02    0.32500E+00  0.32500E+00 -0.65000E+00  0.00000E+00  0.00000E+00  0.00000E+00    0.18742E+02  0.18888E+02 -0.37630E+02 -0.20585E+01  0.17739E+01  0.17573E+02      982.00
  0.60218E+00  0.64415E+02    0.33750E+00  0.33750E+00 -0.67500E+00  0.00000E+00  0.00000E+00  0.00000E+00    0.18764E+02  0.18917E+02 -0.37681E+02 -0.20516E+01  0.17606E+01  0.17632E+02      982.00
  0.62411E+00  0.64527E+02    0.35000E+00  0.35000E+00 -0.70000E+00  0.00000E+00  0.00000E+00  0.00000E+00    0.18792E+02  0.18945E+02 -0.37737E+02 -0.20483E+01  0.17541E+01  0.17680E+02      982.00
  0.64604E+00  0.64626E+02    0.36250E+00  0.36250E+00 -0.72500E+00  0.00000E+00  0.00000E+00  0.00000E+00    0.18817E+02  0.18968E+02 -0.37786E+02 -0.20459E+01  0.17487E+01  0.17723E+02      982.00
  0.66797E+00  0.64719E+02    0.37500E+00  0.37500E+00 -0.75000E+00  0.00000E+00  0.00000E+00  0.00000E+00    0.18843E+02  0.18989E+02 -0.37832E+02 -0.20440E+01  0.17440E+01  0.17763E+02      982.00
  0.68989E+00  0.64805E+02    0.38750E+00  0.38750E+00 -0.77500E+00  0.00000E+00  0.00000E+00  0.00000E+00    0.18868E+02  0.19007E+02 -0.37875E+02 -0.20426E+01  0.17399E+01  0.17799E+02      982.00
  0.71181E+00  0.64886E+02    0.40000E+00  0.40000E+00 -0.80000E+00  0.00000E+00  0.00000E+00  0.00000E+00    0.18892E+02  0.19023E+02 -0.37915E+02 -0.20417E+01  0.17361E+01  0.17833E+02      982.00
  0.73372E+00  0.65004E+02    0.41250E+00  0.41250E+00 -0.82500E+00  0.00000E+00  0.00000E+00  0.00000E+00    0.18929E+02  0.19043E+02 -0.37973E+02 -0.20380E+01  0.17259E+01  0.17886E+02      982.00
  0.75562E+00  0.65070E+02    0.42500E+00  0.42500E+00 -0.85000E+00  0.00000E+00  0.00000E+00  0.00000E+00    0.18953E+02  0.19052E+02 -0.38006E+02 -0.20369E+01  0.17205E+01  0.17914E+02      982.00
  0.77753E+00  0.65131E+02    0.43750E+00  0.43750E+00 -0.87500E+00  0.00000E+00  0.00000E+00  0.00000E+00    0.18977E+02  0.19060E+02 -0.38037E+02 -0.20374E+01  0.17175E+01  0.17939E+02      982.00
  0.79943E+00  0.65189E+02    0.45000E+00  0.45000E+00 -0.90000E+00  0.00000E+00  0.00000E+00  0.00000E+00    0.19000E+02  0.19067E+02 -0.38067E+02 -0.20386E+01  0.17153E+01  0.17962E+02      982.00
  0.82133E+00  0.65243E+02    0.46250E+00  0.46250E+00 -0.92500E+00  0.00000E+00  0.00000E+00  0.00000E+00    0.19023E+02  0.19071E+02 -0.38095E+02 -0.20401E+01  0.17135E+01  0.17983E+02      982.00
  0.84322E+00  0.65294E+02    0.47500E+00  0.47500E+00 -0.95000E+00  0.00000E+00  0.00000E+00  0.00000E+00    0.19046E+02  0.19074E+02 -0.38121E+02 -0.20418E+01  0.17120E+01  0.18003E+02      982.00
  0.86512E+00  0.65342E+02    0.48750E+00  0.48750E+00 -0.97500E+00  0.00000E+00  0.00000E+00  0.00000E+00    0.19069E+02  0.19076E+02 -0.38145E+02 -0.20436E+01  0.17105E+01  0.18022E+02      982.00
  0.88701E+00  0.65331E+02    0.50000E+00  0.50000E+00 -0.10000E+01  0.00000E+00  0.00000E+00  0.00000E+00    0.19057E+02  0.19084E+02 -0.38141E+02 -0.20466E+01  0.17150E+01  0.18014E+02      982.00
