          Evm          Svm            E11          E22          E33          E23          E13          E12         SDEV11       SDEV22       SDEV33       SDEV23       SDEV13       SDEV12      TEMP
  0.00000E+00  0.60651E+02    0.00000E+00  0.00000E+00  0.00000E+00  0.00000E+00  0.00000E+00  0.00000E+00    0.16188E+02  0.22271E+02 -0.38458E+02  0.71953E+01 -0.35125E+01  0.65991E+01      982.00
  0.23778E-01  0.60994E+02    0.12500E-01  0.12500E-01 -0.25000E-01  0.00000E+00  0.00000E+00  0.00000E+00    0.17164E+02  0.21484E+02 -0.38648E+02  0.71535E+01 -0.38353E+01  0.70213E+01      982.00
  0.47540E-01  0.61409E+02    0.25000E-01  0.25000E-01 -0.50000E-01  0.00000E+00  0.00000E+00  0.00000E+00    0.18201E+02  0.20656E+02 -0.38857E+02  0.70568E+01 -0.41826E+01  0.74726E+01      982.00
  0.71268E-01  0.61779E+02    0.37500E-01  0.37500E-01 -0.75000E-01  0.00000E+00  0.00000E+00  0.00000E+00    0.19122E+02  0.19905E+02 -0.39027E+02  0.69057E+01 -0.44637E+01  0.78811E+01      982.00
  0.94957E-01  0.62072E+02    0.50000E-01  0.50000E-01 -0.10000E+00  0.00000E+00  0.00000E+00  0.00000E+00    0.19820E+02  0.19336E+02 -0.39156E+02  0.67251E+01 -0.46151E+01  0.82383E+01      982.00
  0.11861E+00  0.62310E+02    0.62500E-01  0.62500E-01 -0.12500E+00  0.00000E+00  0.00000E+00  0.00000E+00    0.20308E+02  0.18948E+02 -0.39256E+02  0.65343E+01 -0.46562E+01  0.85779E+01      982.00
  0.14224E+00  0.62523E+02    0.75000E-01  0.75000E-01 -0.15000E+00  0.00000E+00  0.00000E+00  0.00000E+00    0.20644E+02  0.18696E+02 -0.39340E+02  0.63415E+01 -0.46330E+01  0.89263E+01      982.00
  0.16583E+00  0.62731E+02    0.87500E-01  0.87500E-01 -0.17500E+00  0.00000E+00  0.00000E+00  0.00000E+00    0.20866E+02  0.18549E+02 -0.39415E+02  0.61550E+01 -0.45777E+01  0.92921E+01      982.00
  0.18940E+00  0.62948E+02    0.10000E+00  0.10000E+00 -0.20000E+00  0.00000E+00  0.00000E+00  0.00000E+00    0.21008E+02  0.18480E+02 -0.39488E+02  0.59770E+01 -0.45151E+01  0.96764E+01      982.00
  0.21292E+00  0.63175E+02    0.11250E+00  0.11250E+00 -0.22500E+00  0.00000E+00  0.00000E+00  0.00000E+00    0.21083E+02  0.18474E+02 -0.39556E+02  0.58111E+01 -0.44519E+01  0.10077E+02      982.00
  0.23640E+00  0.63416E+02    0.12500E+00  0.12500E+00 -0.25000E+00  0.00000E+00  0.00000E+00  0.00000E+00    0.21113E+02  0.18507E+02 -0.39620E+02  0.56544E+01 -0.44018E+01  0.10495E+02      982.00
  0.25983E+00  0.63660E+02    0.13750E+00  0.13750E+00 -0.27500E+00  0.00000E+00  0.00000E+00  0.00000E+00    0.21102E+02  0.18575E+02 -0.39678E+02  0.55231E+01 -0.43614E+01  0.10908E+02      982.00
  0.28320E+00  0.63918E+02    0.15000E+00  0.15000E+00 -0.30000E+00  0.00000E+00  0.00000E+00  0.00000E+00    0.21075E+02  0.18655E+02 -0.39729E+02  0.53995E+01 -0.43434E+01  0.11337E+02      982.00
  0.30651E+00  0.64184E+02    0.16250E+00  0.16250E+00 -0.32500E+00  0.00000E+00  0.00000E+00  0.00000E+00    0.21031E+02  0.18743E+02 -0.39774E+02  0.52835E+01 -0.43466E+01  0.11773E+02      982.00
  0.32975E+00  0.64449E+02    0.17500E+00  0.17500E+00 -0.35000E+00  0.00000E+00  0.00000E+00  0.00000E+00    0.20967E+02  0.18839E+02 -0.39806E+02  0.51757E+01 -0.43688E+01  0.12213E+02      982.00
  0.35291E+00  0.64711E+02    0.18750E+00  0.18750E+00 -0.37500E+00  0.00000E+00  0.00000E+00  0.00000E+00    0.20888E+02  0.18937E+02 -0.39826E+02  0.50768E+01 -0.44050E+01  0.12655E+02      982.00
  0.37599E+00  0.64967E+02    0.20000E+00  0.20000E+00 -0.40000E+00  0.00000E+00  0.00000E+00  0.00000E+00    0.20798E+02  0.19032E+02 -0.39830E+02  0.49859E+01 -0.44525E+01  0.13101E+02      982.00
  0.39898E+00  0.65215E+02    0.21250E+00  0.21250E+00 -0.42500E+00  0.00000E+00  0.00000E+00  0.00000E+00    0.20699E+02  0.19119E+02 -0.39818E+02  0.49019E+01 -0.45079E+01  0.13549E+02      982.00
  0.42188E+00  0.65452E+02    0.22500E+00  0.22500E+00 -0.45000E+00  0.00000E+00  0.00000E+00  0.00000E+00    0.20593E+02  0.19195E+02 -0.39789E+02  0.48234E+01 -0.45680E+01  0.14001E+02      982.00
  0.44467E+00  0.65672E+02    0.23750E+00  0.23750E+00 -0.47500E+00  0.00000E+00  0.00000E+00  0.00000E+00    0.20478E+02  0.19261E+02 -0.39739E+02  0.47490E+01 -0.46299E+01  0.14452E+02      982.00
  0.46736E+00  0.65881E+02    0.25000E+00  0.25000E+00 -0.50000E+00  0.00000E+00  0.00000E+00  0.00000E+00    0.20366E+02  0.19305E+02 -0.39670E+02  0.46773E+01 -0.46892E+01  0.14910E+02      982.00
  0.48994E+00  0.66070E+02    0.26250E+00  0.26250E+00 -0.52500E+00  0.00000E+00  0.00000E+00  0.00000E+00    0.20249E+02  0.19332E+02 -0.39582E+02  0.46032E+01 -0.47443E+01  0.15367E+02      982.00
  0.51241E+00  0.66244E+02    0.27500E+00  0.27500E+00 -0.55000E+00  0.00000E+00  0.00000E+00  0.00000E+00    0.20136E+02  0.19339E+02 -0.39475E+02  0.45232E+01 -0.47911E+01  0.15827E+02      982.00
  0.53476E+00  0.66406E+02    0.28750E+00  0.28750E+00 -0.57500E+00  0.00000E+00  0.00000E+00  0.00000E+00    0.20028E+02  0.19322E+02 -0.39350E+02  0.44338E+01 -0.48268E+01  0.16295E+02      982.00
  0.55698E+00  0.66545E+02    0.30000E+00  0.30000E+00 -0.60000E+00  0.00000E+00  0.00000E+00  0.00000E+00    0.19925E+02  0.19279E+02 -0.39204E+02  0.43464E+01 -0.48447E+01  0.16760E+02      982.00
  0.57907E+00  0.66668E+02    0.31250E+00  0.31250E+00 -0.62500E+00  0.00000E+00  0.00000E+00  0.00000E+00    0.19828E+02  0.19214E+02 -0.39042E+02  0.42498E+01 -0.48447E+01  0.17225E+02      982.00
  0.60103E+00  0.66773E+02    0.32500E+00  0.32500E+00 -0.65000E+00  0.00000E+00  0.00000E+00  0.00000E+00    0.19737E+02  0.19130E+02 -0.38866E+02  0.41398E+01 -0.48239E+01  0.17685E+02      982.00
  0.62286E+00  0.66861E+02    0.33750E+00  0.33750E+00 -0.67500E+00  0.00000E+00  0.00000E+00  0.00000E+00    0.19650E+02  0.19029E+02 -0.38679E+02  0.40140E+01 -0.47799E+01  0.18138E+02      982.00
  0.64455E+00  0.66933E+02    0.35000E+00  0.35000E+00 -0.70000E+00  0.00000E+00  0.00000E+00  0.00000E+00    0.19571E+02  0.18914E+02 -0.38485E+02  0.38707E+01 -0.47107E+01  0.18581E+02      982.00
  0.66611E+00  0.67000E+02    0.36250E+00  0.36250E+00 -0.72500E+00  0.00000E+00  0.00000E+00  0.00000E+00    0.19495E+02  0.18793E+02 -0.38288E+02  0.37254E+01 -0.46218E+01  0.19013E+02      982.00
  0.68754E+00  0.67046E+02    0.37500E+00  0.37500E+00 -0.75000E+00  0.00000E+00  0.00000E+00  0.00000E+00    0.19430E+02  0.18662E+02 -0.38092E+02  0.35447E+01 -0.45014E+01  0.19421E+02      982.00
  0.70885E+00  0.67086E+02    0.38750E+00  0.38750E+00 -0.77500E+00  0.00000E+00  0.00000E+00  0.00000E+00    0.19371E+02  0.18531E+02 -0.37902E+02  0.33500E+01 -0.43574E+01  0.19809E+02      982.00
  0.73004E+00  0.67108E+02    0.40000E+00  0.40000E+00 -0.80000E+00  0.00000E+00  0.00000E+00  0.00000E+00    0.19322E+02  0.18396E+02 -0.37719E+02  0.31320E+01 -0.41861E+01  0.20164E+02      982.00
  0.75111E+00  0.67118E+02    0.41250E+00  0.41250E+00 -0.82500E+00  0.00000E+00  0.00000E+00  0.00000E+00    0.19283E+02  0.18264E+02 -0.37547E+02  0.28947E+01 -0.39892E+01  0.20486E+02      982.00
  0.77209E+00  0.67122E+02    0.42500E+00  0.42500E+00 -0.85000E+00  0.00000E+00  0.00000E+00  0.00000E+00    0.19251E+02  0.18142E+02 -0.37392E+02  0.26482E+01 -0.37748E+01  0.20775E+02      982.00
  0.79298E+00  0.67121E+02    0.43750E+00  0.43750E+00 -0.87500E+00  0.00000E+00  0.00000E+00  0.00000E+00    0.19228E+02  0.18028E+02 -0.37256E+02  0.23896E+01 -0.35430E+01  0.21027E+02      982.00
  0.81380E+00  0.67111E+02    0.45000E+00  0.45000E+00 -0.90000E+00  0.00000E+00  0.00000E+00  0.00000E+00    0.19215E+02  0.17923E+02 -0.37138E+02  0.21165E+01 -0.32914E+01  0.21240E+02      982.00
  0.83455E+00  0.67093E+02    0.46250E+00  0.46250E+00 -0.92500E+00  0.00000E+00  0.00000E+00  0.00000E+00    0.19212E+02  0.17829E+02 -0.37040E+02  0.18299E+01 -0.30205E+01  0.21414E+02      982.00
  0.85525E+00  0.67068E+02    0.47500E+00  0.47500E+00 -0.95000E+00  0.00000E+00  0.00000E+00  0.00000E+00    0.19217E+02  0.17747E+02 -0.36964E+02  0.15291E+01 -0.27301E+01  0.21547E+02      982.00
  0.87592E+00  0.67042E+02    0.48750E+00  0.48750E+00 -0.97500E+00  0.00000E+00  0.00000E+00  0.00000E+00    0.19231E+02  0.17680E+02 -0.36910E+02  0.12278E+01 -0.24333E+01  0.21642E+02      982.00
  0.89657E+00  0.67013E+02    0.50000E+00  0.50000E+00 -0.10000E+01  0.00000E+00  0.00000E+00  0.00000E+00    0.19253E+02  0.17625E+02 -0.36878E+02  0.92121E+00 -0.21255E+01  0.21700E+02      982.00
