          Evm          Svm            E11          E22          E33          E23          E13          E12         SDEV11       SDEV22       SDEV33       SDEV23       SDEV13       SDEV12      TEMP
  0.00000E+00  0.57097E+02    0.00000E+00  0.00000E+00  0.00000E+00  0.00000E+00  0.00000E+00  0.00000E+00    0.15408E+02  0.20008E+02 -0.35416E+02 -0.40416E+01  0.30543E+00  0.11147E+02      982.00
  0.23260E-01  0.57212E+02    0.12500E-01  0.12500E-01 -0.25000E-01  0.00000E+00  0.00000E+00  0.00000E+00    0.15960E+02  0.19465E+02 -0.35425E+02 -0.37517E+01  0.60813E+00  0.11503E+02      982.00
  0.46480E-01  0.57379E+02    0.25000E-01  0.25000E-01 -0.50000E-01  0.00000E+00  0.00000E+00  0.00000E+00    0.16454E+02  0.18993E+02 -0.35448E+02 -0.35182E+01  0.86726E+00  0.11845E+02      982.00
  0.69647E-01  0.57598E+02    0.37500E-01  0.37500E-01 -0.75000E-01  0.00000E+00  0.00000E+00  0.00000E+00    0.16872E+02  0.18611E+02 -0.35484E+02 -0.33243E+01  0.10858E+01  0.12188E+02      982.00
  0.92749E-01  0.57892E+02    0.50000E-01  0.50000E-01 -0.10000E+00  0.00000E+00  0.00000E+00  0.00000E+00    0.17227E+02  0.18325E+02 -0.35552E+02 -0.31554E+01  0.12690E+01  0.12544E+02      982.00
  0.11578E+00  0.58244E+02    0.62500E-01  0.62500E-01 -0.12500E+00  0.00000E+00  0.00000E+00  0.00000E+00    0.17518E+02  0.18125E+02 -0.35643E+02 -0.30066E+01  0.14163E+01  0.12916E+02      982.00
  0.13873E+00  0.58628E+02    0.75000E-01  0.75000E-01 -0.15000E+00  0.00000E+00  0.00000E+00  0.00000E+00    0.17754E+02  0.17997E+02 -0.35751E+02 -0.28730E+01  0.15301E+01  0.13286E+02      982.00
  0.16159E+00  0.59045E+02    0.87500E-01  0.87500E-01 -0.17500E+00  0.00000E+00  0.00000E+00  0.00000E+00    0.17946E+02  0.17931E+02 -0.35877E+02 -0.27521E+01  0.16138E+01  0.13658E+02      982.00
  0.18438E+00  0.59460E+02    0.10000E+00  0.10000E+00 -0.20000E+00  0.00000E+00  0.00000E+00  0.00000E+00    0.18099E+02  0.17905E+02 -0.36004E+02 -0.26418E+01  0.16711E+01  0.14018E+02      982.00
  0.20709E+00  0.59882E+02    0.11250E+00  0.11250E+00 -0.22500E+00  0.00000E+00  0.00000E+00  0.00000E+00    0.18226E+02  0.17914E+02 -0.36140E+02 -0.25405E+01  0.17059E+01  0.14364E+02      982.00
  0.22972E+00  0.60287E+02    0.12500E+00  0.12500E+00 -0.25000E+00  0.00000E+00  0.00000E+00  0.00000E+00    0.18329E+02  0.17943E+02 -0.36272E+02 -0.24468E+01  0.17232E+01  0.14689E+02      982.00
  0.25228E+00  0.60666E+02    0.13750E+00  0.13750E+00 -0.27500E+00  0.00000E+00  0.00000E+00  0.00000E+00    0.18413E+02  0.17986E+02 -0.36398E+02 -0.23647E+01  0.17261E+01  0.14985E+02      982.00
  0.27478E+00  0.61050E+02    0.15000E+00  0.15000E+00 -0.30000E+00  0.00000E+00  0.00000E+00  0.00000E+00    0.18489E+02  0.18041E+02 -0.36529E+02 -0.22954E+01  0.17145E+01  0.15274E+02      982.00
  0.29722E+00  0.61404E+02    0.16250E+00  0.16250E+00 -0.32500E+00  0.00000E+00  0.00000E+00  0.00000E+00    0.18558E+02  0.18096E+02 -0.36654E+02 -0.22254E+01  0.17000E+01  0.15532E+02      982.00
  0.31960E+00  0.61742E+02    0.17500E+00  0.17500E+00 -0.35000E+00  0.00000E+00  0.00000E+00  0.00000E+00    0.18623E+02  0.18148E+02 -0.36771E+02 -0.21595E+01  0.16782E+01  0.15782E+02      982.00
  0.34194E+00  0.62063E+02    0.18750E+00  0.18750E+00 -0.37500E+00  0.00000E+00  0.00000E+00  0.00000E+00    0.18687E+02  0.18200E+02 -0.36887E+02 -0.21170E+01  0.16574E+01  0.16005E+02      982.00
  0.36423E+00  0.62364E+02    0.20000E+00  0.20000E+00 -0.40000E+00  0.00000E+00  0.00000E+00  0.00000E+00    0.18751E+02  0.18247E+02 -0.36999E+02 -0.20812E+01  0.16363E+01  0.16207E+02      982.00
  0.38647E+00  0.62624E+02    0.21250E+00  0.21250E+00 -0.42500E+00  0.00000E+00  0.00000E+00  0.00000E+00    0.18811E+02  0.18285E+02 -0.37096E+02 -0.20660E+01  0.16211E+01  0.16377E+02      982.00
  0.40869E+00  0.62879E+02    0.22500E+00  0.22500E+00 -0.45000E+00  0.00000E+00  0.00000E+00  0.00000E+00    0.18873E+02  0.18319E+02 -0.37191E+02 -0.20412E+01  0.16035E+01  0.16544E+02      982.00
  0.43087E+00  0.63097E+02    0.23750E+00  0.23750E+00 -0.47500E+00  0.00000E+00  0.00000E+00  0.00000E+00    0.18931E+02  0.18343E+02 -0.37274E+02 -0.20152E+01  0.15857E+01  0.16685E+02      982.00
  0.45302E+00  0.63345E+02    0.25000E+00  0.25000E+00 -0.50000E+00  0.00000E+00  0.00000E+00  0.00000E+00    0.19005E+02  0.18361E+02 -0.37366E+02 -0.19798E+01  0.15577E+01  0.16850E+02      982.00
  0.47514E+00  0.63542E+02    0.26250E+00  0.26250E+00 -0.52500E+00  0.00000E+00  0.00000E+00  0.00000E+00    0.19068E+02  0.18375E+02 -0.37443E+02 -0.19700E+01  0.15467E+01  0.16969E+02      982.00
  0.49724E+00  0.63724E+02    0.27500E+00  0.27500E+00 -0.55000E+00  0.00000E+00  0.00000E+00  0.00000E+00    0.19132E+02  0.18385E+02 -0.37516E+02 -0.19660E+01  0.15383E+01  0.17076E+02      982.00
  0.51932E+00  0.63866E+02    0.28750E+00  0.28750E+00 -0.57500E+00  0.00000E+00  0.00000E+00  0.00000E+00    0.19179E+02  0.18400E+02 -0.37578E+02 -0.19809E+01  0.15429E+01  0.17149E+02      982.00
  0.54138E+00  0.64023E+02    0.30000E+00  0.30000E+00 -0.60000E+00  0.00000E+00  0.00000E+00  0.00000E+00    0.19239E+02  0.18403E+02 -0.37643E+02 -0.19787E+01  0.15357E+01  0.17238E+02      982.00
  0.56343E+00  0.64174E+02    0.31250E+00  0.31250E+00 -0.62500E+00  0.00000E+00  0.00000E+00  0.00000E+00    0.19300E+02  0.18405E+02 -0.37706E+02 -0.19794E+01  0.15299E+01  0.17322E+02      982.00
  0.58546E+00  0.64304E+02    0.32500E+00  0.32500E+00 -0.65000E+00  0.00000E+00  0.00000E+00  0.00000E+00    0.19358E+02  0.18401E+02 -0.37758E+02 -0.19800E+01  0.15252E+01  0.17396E+02      982.00
  0.60748E+00  0.64433E+02    0.33750E+00  0.33750E+00 -0.67500E+00  0.00000E+00  0.00000E+00  0.00000E+00    0.19416E+02  0.18396E+02 -0.37812E+02 -0.19828E+01  0.15215E+01  0.17466E+02      982.00
  0.62949E+00  0.64542E+02    0.35000E+00  0.35000E+00 -0.70000E+00  0.00000E+00  0.00000E+00  0.00000E+00    0.19471E+02  0.18387E+02 -0.37858E+02 -0.19869E+01  0.15188E+01  0.17524E+02      982.00
  0.65148E+00  0.64620E+02    0.36250E+00  0.36250E+00 -0.72500E+00  0.00000E+00  0.00000E+00  0.00000E+00    0.19522E+02  0.18368E+02 -0.37890E+02 -0.19881E+01  0.15139E+01  0.17567E+02      982.00
  0.67347E+00  0.64740E+02    0.37500E+00  0.37500E+00 -0.75000E+00  0.00000E+00  0.00000E+00  0.00000E+00    0.19602E+02  0.18336E+02 -0.37938E+02 -0.19910E+01  0.15067E+01  0.17635E+02      982.00
  0.69545E+00  0.64833E+02    0.38750E+00  0.38750E+00 -0.77500E+00  0.00000E+00  0.00000E+00  0.00000E+00    0.19658E+02  0.18321E+02 -0.37979E+02 -0.19977E+01  0.15068E+01  0.17680E+02      982.00
  0.71741E+00  0.64910E+02    0.40000E+00  0.40000E+00 -0.80000E+00  0.00000E+00  0.00000E+00  0.00000E+00    0.19707E+02  0.18305E+02 -0.38011E+02 -0.20048E+01  0.15078E+01  0.17720E+02      982.00
  0.73937E+00  0.64991E+02    0.41250E+00  0.41250E+00 -0.82500E+00  0.00000E+00  0.00000E+00  0.00000E+00    0.19757E+02  0.18291E+02 -0.38048E+02 -0.20126E+01  0.15090E+01  0.17758E+02      982.00
  0.76133E+00  0.65061E+02    0.42500E+00  0.42500E+00 -0.85000E+00  0.00000E+00  0.00000E+00  0.00000E+00    0.19805E+02  0.18275E+02 -0.38079E+02 -0.20200E+01  0.15104E+01  0.17791E+02      982.00
  0.78328E+00  0.65126E+02    0.43750E+00  0.43750E+00 -0.87500E+00  0.00000E+00  0.00000E+00  0.00000E+00    0.19851E+02  0.18257E+02 -0.38108E+02 -0.20273E+01  0.15121E+01  0.17821E+02      982.00
  0.80522E+00  0.65180E+02    0.45000E+00  0.45000E+00 -0.90000E+00  0.00000E+00  0.00000E+00  0.00000E+00    0.19893E+02  0.18237E+02 -0.38130E+02 -0.20349E+01  0.15136E+01  0.17849E+02      982.00
  0.82716E+00  0.65240E+02    0.46250E+00  0.46250E+00 -0.92500E+00  0.00000E+00  0.00000E+00  0.00000E+00    0.19937E+02  0.18220E+02 -0.38157E+02 -0.20414E+01  0.15159E+01  0.17876E+02      982.00
  0.84909E+00  0.65291E+02    0.47500E+00  0.47500E+00 -0.95000E+00  0.00000E+00  0.00000E+00  0.00000E+00    0.19980E+02  0.18201E+02 -0.38181E+02 -0.20490E+01  0.15186E+01  0.17898E+02      982.00
  0.87102E+00  0.65344E+02    0.48750E+00  0.48750E+00 -0.97500E+00  0.00000E+00  0.00000E+00  0.00000E+00    0.20022E+02  0.18183E+02 -0.38205E+02 -0.20564E+01  0.15208E+01  0.17922E+02      982.00
  0.89294E+00  0.65353E+02    0.50000E+00  0.50000E+00 -0.10000E+01  0.00000E+00  0.00000E+00  0.00000E+00    0.20010E+02  0.18201E+02 -0.38211E+02 -0.20531E+01  0.15257E+01  0.17923E+02      982.00
