          Evm          Svm            E11          E22          E33          E23          E13          E12         SDEV11       SDEV22       SDEV33       SDEV23       SDEV13       SDEV12      TEMP
  0.00000E+00  0.62736E+02    0.00000E+00  0.00000E+00  0.00000E+00  0.00000E+00  0.00000E+00  0.00000E+00    0.17934E+02  0.21525E+02 -0.39459E+02 -0.42814E+01 -0.56903E+01 -0.94993E+01      982.00
  0.23586E-01  0.62604E+02    0.12500E-01  0.12500E-01 -0.25000E-01  0.00000E+00  0.00000E+00  0.00000E+00    0.17928E+02  0.21568E+02 -0.39496E+02 -0.43522E+01 -0.54039E+01 -0.92217E+01      982.00
  0.47244E-01  0.62553E+02    0.25000E-01  0.25000E-01 -0.50000E-01  0.00000E+00  0.00000E+00  0.00000E+00    0.17977E+02  0.21583E+02 -0.39560E+02 -0.44533E+01 -0.51879E+01 -0.89726E+01      982.00
  0.70961E-01  0.62600E+02    0.37500E-01  0.37500E-01 -0.75000E-01  0.00000E+00  0.00000E+00  0.00000E+00    0.18050E+02  0.21611E+02 -0.39661E+02 -0.45736E+01 -0.50251E+01 -0.87841E+01      982.00
  0.94719E-01  0.62692E+02    0.50000E-01  0.50000E-01 -0.10000E+00  0.00000E+00  0.00000E+00  0.00000E+00    0.18121E+02  0.21651E+02 -0.39772E+02 -0.46810E+01 -0.48982E+01 -0.86451E+01      982.00
  0.11851E+00  0.62847E+02    0.62500E-01  0.62500E-01 -0.12500E+00  0.00000E+00  0.00000E+00  0.00000E+00    0.18198E+02  0.21711E+02 -0.39909E+02 -0.47545E+01 -0.48035E+01 -0.85590E+01      982.00
  0.14232E+00  0.63049E+02    0.75000E-01  0.75000E-01 -0.15000E+00  0.00000E+00  0.00000E+00  0.00000E+00    0.18269E+02  0.21796E+02 -0.40065E+02 -0.48063E+01 -0.47281E+01 -0.85174E+01      982.00
  0.16615E+00  0.63310E+02    0.87500E-01  0.87500E-01 -0.17500E+00  0.00000E+00  0.00000E+00  0.00000E+00    0.18332E+02  0.21918E+02 -0.40251E+02 -0.48432E+01 -0.46632E+01 -0.85179E+01      982.00
  0.18999E+00  0.63600E+02    0.10000E+00  0.10000E+00 -0.20000E+00  0.00000E+00  0.00000E+00  0.00000E+00    0.18405E+02  0.22045E+02 -0.40450E+02 -0.48494E+01 -0.46174E+01 -0.85440E+01      982.00
  0.21384E+00  0.63905E+02    0.11250E+00  0.11250E+00 -0.22500E+00  0.00000E+00  0.00000E+00  0.00000E+00    0.18457E+02  0.22198E+02 -0.40655E+02 -0.48457E+01 -0.45708E+01 -0.85914E+01      982.00
  0.23770E+00  0.64238E+02    0.12500E+00  0.12500E+00 -0.25000E+00  0.00000E+00  0.00000E+00  0.00000E+00    0.18516E+02  0.22358E+02 -0.40875E+02 -0.48279E+01 -0.45362E+01 -0.86532E+01      982.00
  0.26156E+00  0.64584E+02    0.13750E+00  0.13750E+00 -0.27500E+00  0.00000E+00  0.00000E+00  0.00000E+00    0.18575E+02  0.22527E+02 -0.41102E+02 -0.48001E+01 -0.45073E+01 -0.87210E+01      982.00
  0.28543E+00  0.64931E+02    0.15000E+00  0.15000E+00 -0.30000E+00  0.00000E+00  0.00000E+00  0.00000E+00    0.18633E+02  0.22697E+02 -0.41329E+02 -0.47657E+01 -0.44842E+01 -0.87920E+01      982.00
  0.30930E+00  0.65282E+02    0.16250E+00  0.16250E+00 -0.32500E+00  0.00000E+00  0.00000E+00  0.00000E+00    0.18691E+02  0.22869E+02 -0.41560E+02 -0.47262E+01 -0.44649E+01 -0.88616E+01      982.00
  0.33317E+00  0.65635E+02    0.17500E+00  0.17500E+00 -0.35000E+00  0.00000E+00  0.00000E+00  0.00000E+00    0.18741E+02  0.23050E+02 -0.41791E+02 -0.46832E+01 -0.44468E+01 -0.89316E+01      982.00
  0.35705E+00  0.65959E+02    0.18750E+00  0.18750E+00 -0.37500E+00  0.00000E+00  0.00000E+00  0.00000E+00    0.18792E+02  0.23212E+02 -0.42004E+02 -0.46380E+01 -0.44352E+01 -0.89929E+01      982.00
  0.38093E+00  0.66277E+02    0.20000E+00  0.20000E+00 -0.40000E+00  0.00000E+00  0.00000E+00  0.00000E+00    0.18835E+02  0.23379E+02 -0.42214E+02 -0.45913E+01 -0.44262E+01 -0.90497E+01      982.00
  0.40481E+00  0.66578E+02    0.21250E+00  0.21250E+00 -0.42500E+00  0.00000E+00  0.00000E+00  0.00000E+00    0.18883E+02  0.23530E+02 -0.42413E+02 -0.45439E+01 -0.44196E+01 -0.90980E+01      982.00
  0.42870E+00  0.66855E+02    0.22500E+00  0.22500E+00 -0.45000E+00  0.00000E+00  0.00000E+00  0.00000E+00    0.18926E+02  0.23673E+02 -0.42599E+02 -0.44959E+01 -0.44160E+01 -0.91396E+01      982.00
  0.45260E+00  0.67120E+02    0.23750E+00  0.23750E+00 -0.47500E+00  0.00000E+00  0.00000E+00  0.00000E+00    0.18967E+02  0.23810E+02 -0.42776E+02 -0.44493E+01 -0.44153E+01 -0.91756E+01      982.00
  0.47650E+00  0.67394E+02    0.25000E+00  0.25000E+00 -0.50000E+00  0.00000E+00  0.00000E+00  0.00000E+00    0.19000E+02  0.23962E+02 -0.42962E+02 -0.43923E+01 -0.44137E+01 -0.92062E+01      982.00
  0.50040E+00  0.67612E+02    0.26250E+00  0.26250E+00 -0.52500E+00  0.00000E+00  0.00000E+00  0.00000E+00    0.19026E+02  0.24084E+02 -0.43110E+02 -0.43445E+01 -0.44130E+01 -0.92297E+01      982.00
  0.52431E+00  0.67818E+02    0.27500E+00  0.27500E+00 -0.55000E+00  0.00000E+00  0.00000E+00  0.00000E+00    0.19050E+02  0.24201E+02 -0.43251E+02 -0.42972E+01 -0.44151E+01 -0.92479E+01      982.00
  0.54823E+00  0.68013E+02    0.28750E+00  0.28750E+00 -0.57500E+00  0.00000E+00  0.00000E+00  0.00000E+00    0.19070E+02  0.24314E+02 -0.43385E+02 -0.42507E+01 -0.44171E+01 -0.92623E+01      982.00
  0.57215E+00  0.68193E+02    0.30000E+00  0.30000E+00 -0.60000E+00  0.00000E+00  0.00000E+00  0.00000E+00    0.19085E+02  0.24424E+02 -0.43508E+02 -0.42057E+01 -0.44220E+01 -0.92751E+01      982.00
  0.59607E+00  0.68345E+02    0.31250E+00  0.31250E+00 -0.62500E+00  0.00000E+00  0.00000E+00  0.00000E+00    0.19089E+02  0.24524E+02 -0.43613E+02 -0.41603E+01 -0.44262E+01 -0.92822E+01      982.00
  0.62000E+00  0.68485E+02    0.32500E+00  0.32500E+00 -0.65000E+00  0.00000E+00  0.00000E+00  0.00000E+00    0.19094E+02  0.24614E+02 -0.43708E+02 -0.41259E+01 -0.44336E+01 -0.92919E+01      982.00
  0.64394E+00  0.68620E+02    0.33750E+00  0.33750E+00 -0.67500E+00  0.00000E+00  0.00000E+00  0.00000E+00    0.19092E+02  0.24710E+02 -0.43802E+02 -0.40819E+01 -0.44386E+01 -0.92940E+01      982.00
  0.66787E+00  0.68749E+02    0.35000E+00  0.35000E+00 -0.70000E+00  0.00000E+00  0.00000E+00  0.00000E+00    0.19086E+02  0.24806E+02 -0.43892E+02 -0.40379E+01 -0.44446E+01 -0.92934E+01      982.00
  0.69181E+00  0.68866E+02    0.36250E+00  0.36250E+00 -0.72500E+00  0.00000E+00  0.00000E+00  0.00000E+00    0.19075E+02  0.24899E+02 -0.43974E+02 -0.39944E+01 -0.44512E+01 -0.92912E+01      982.00
  0.71576E+00  0.68970E+02    0.37500E+00  0.37500E+00 -0.75000E+00  0.00000E+00  0.00000E+00  0.00000E+00    0.19058E+02  0.24989E+02 -0.44047E+02 -0.39506E+01 -0.44586E+01 -0.92859E+01      982.00
  0.73971E+00  0.69067E+02    0.38750E+00  0.38750E+00 -0.77500E+00  0.00000E+00  0.00000E+00  0.00000E+00    0.19038E+02  0.25078E+02 -0.44116E+02 -0.39067E+01 -0.44672E+01 -0.92781E+01      982.00
  0.76366E+00  0.69155E+02    0.40000E+00  0.40000E+00 -0.80000E+00  0.00000E+00  0.00000E+00  0.00000E+00    0.19012E+02  0.25166E+02 -0.44178E+02 -0.38639E+01 -0.44763E+01 -0.92696E+01      982.00
  0.78762E+00  0.69236E+02    0.41250E+00  0.41250E+00 -0.82500E+00  0.00000E+00  0.00000E+00  0.00000E+00    0.18983E+02  0.25253E+02 -0.44236E+02 -0.38204E+01 -0.44859E+01 -0.92584E+01      982.00
  0.81158E+00  0.69307E+02    0.42500E+00  0.42500E+00 -0.85000E+00  0.00000E+00  0.00000E+00  0.00000E+00    0.18948E+02  0.25338E+02 -0.44286E+02 -0.37782E+01 -0.44967E+01 -0.92461E+01      982.00
  0.83554E+00  0.69381E+02    0.43750E+00  0.43750E+00 -0.87500E+00  0.00000E+00  0.00000E+00  0.00000E+00    0.18913E+02  0.25426E+02 -0.44339E+02 -0.37349E+01 -0.45073E+01 -0.92311E+01      982.00
  0.85950E+00  0.69382E+02    0.45000E+00  0.45000E+00 -0.90000E+00  0.00000E+00  0.00000E+00  0.00000E+00    0.18866E+02  0.25481E+02 -0.44347E+02 -0.36911E+01 -0.44930E+01 -0.92143E+01      982.00
  0.88347E+00  0.69381E+02    0.46250E+00  0.46250E+00 -0.92500E+00  0.00000E+00  0.00000E+00  0.00000E+00    0.18808E+02  0.25547E+02 -0.44355E+02 -0.36383E+01 -0.44864E+01 -0.91832E+01      982.00
  0.90745E+00  0.69382E+02    0.47500E+00  0.47500E+00 -0.95000E+00  0.00000E+00  0.00000E+00  0.00000E+00    0.18751E+02  0.25613E+02 -0.44364E+02 -0.35842E+01 -0.44824E+01 -0.91539E+01      982.00
  0.93142E+00  0.69380E+02    0.48750E+00  0.48750E+00 -0.97500E+00  0.00000E+00  0.00000E+00  0.00000E+00    0.18691E+02  0.25679E+02 -0.44370E+02 -0.35322E+01 -0.44798E+01 -0.91244E+01      982.00
  0.95541E+00  0.69377E+02    0.50000E+00  0.50000E+00 -0.10000E+01  0.00000E+00  0.00000E+00  0.00000E+00    0.18626E+02  0.25748E+02 -0.44374E+02 -0.34878E+01 -0.44778E+01 -0.90939E+01      982.00
