          Evm          Svm            E11          E22          E33          E23          E13          E12         SDEV11       SDEV22       SDEV33       SDEV23       SDEV13       SDEV12      TEMP
  0.00000E+00  0.64150E+02    0.00000E+00  0.00000E+00  0.00000E+00  0.00000E+00  0.00000E+00  0.00000E+00    0.20613E+02  0.20751E+02 -0.41364E+02 -0.17369E+01  0.12982E+01  0.91547E+01      982.00
  0.24180E-01  0.64129E+02    0.12500E-01  0.12500E-01 -0.25000E-01  0.00000E+00  0.00000E+00  0.00000E+00    0.20374E+02  0.20958E+02 -0.41332E+02 -0.17842E+01  0.12378E+01  0.92094E+01      982.00
  0.48349E-01  0.64150E+02    0.25000E-01  0.25000E-01 -0.50000E-01  0.00000E+00  0.00000E+00  0.00000E+00    0.20228E+02  0.21091E+02 -0.41320E+02 -0.18327E+01  0.11889E+01  0.92883E+01      982.00
  0.72503E-01  0.64205E+02    0.37500E-01  0.37500E-01 -0.75000E-01  0.00000E+00  0.00000E+00  0.00000E+00    0.20133E+02  0.21193E+02 -0.41326E+02 -0.18748E+01  0.11530E+01  0.93866E+01      982.00
  0.96640E-01  0.64295E+02    0.50000E-01  0.50000E-01 -0.10000E+00  0.00000E+00  0.00000E+00  0.00000E+00    0.20062E+02  0.21288E+02 -0.41350E+02 -0.19102E+01  0.11293E+01  0.95009E+01      982.00
  0.12076E+00  0.64425E+02    0.62500E-01  0.62500E-01 -0.12500E+00  0.00000E+00  0.00000E+00  0.00000E+00    0.20019E+02  0.21376E+02 -0.41395E+02 -0.19416E+01  0.11143E+01  0.96391E+01      982.00
  0.14485E+00  0.64588E+02    0.75000E-01  0.75000E-01 -0.15000E+00  0.00000E+00  0.00000E+00  0.00000E+00    0.19999E+02  0.21457E+02 -0.41456E+02 -0.19708E+01  0.11066E+01  0.97941E+01      982.00
  0.16892E+00  0.64761E+02    0.87500E-01  0.87500E-01 -0.17500E+00  0.00000E+00  0.00000E+00  0.00000E+00    0.20001E+02  0.21526E+02 -0.41527E+02 -0.20024E+01  0.11089E+01  0.99412E+01      982.00
  0.19297E+00  0.64973E+02    0.10000E+00  0.10000E+00 -0.20000E+00  0.00000E+00  0.00000E+00  0.00000E+00    0.20022E+02  0.21598E+02 -0.41620E+02 -0.20364E+01  0.11190E+01  0.10099E+02      982.00
  0.21699E+00  0.65205E+02    0.11250E+00  0.11250E+00 -0.22500E+00  0.00000E+00  0.00000E+00  0.00000E+00    0.20056E+02  0.21669E+02 -0.41726E+02 -0.20712E+01  0.11346E+01  0.10258E+02      982.00
  0.24099E+00  0.65471E+02    0.12500E+00  0.12500E+00 -0.25000E+00  0.00000E+00  0.00000E+00  0.00000E+00    0.20101E+02  0.21746E+02 -0.41847E+02 -0.21064E+01  0.11522E+01  0.10441E+02      982.00
  0.26496E+00  0.65729E+02    0.13750E+00  0.13750E+00 -0.27500E+00  0.00000E+00  0.00000E+00  0.00000E+00    0.20155E+02  0.21817E+02 -0.41972E+02 -0.21431E+01  0.11770E+01  0.10592E+02      982.00
  0.28890E+00  0.65988E+02    0.15000E+00  0.15000E+00 -0.30000E+00  0.00000E+00  0.00000E+00  0.00000E+00    0.20215E+02  0.21886E+02 -0.42100E+02 -0.21795E+01  0.12044E+01  0.10736E+02      982.00
  0.31283E+00  0.66248E+02    0.16250E+00  0.16250E+00 -0.32500E+00  0.00000E+00  0.00000E+00  0.00000E+00    0.20278E+02  0.21953E+02 -0.42231E+02 -0.22148E+01  0.12336E+01  0.10872E+02      982.00
  0.33673E+00  0.66554E+02    0.17500E+00  0.17500E+00 -0.35000E+00  0.00000E+00  0.00000E+00  0.00000E+00    0.20357E+02  0.22029E+02 -0.42386E+02 -0.22539E+01  0.12670E+01  0.11028E+02      982.00
  0.36061E+00  0.66798E+02    0.18750E+00  0.18750E+00 -0.37500E+00  0.00000E+00  0.00000E+00  0.00000E+00    0.20425E+02  0.22089E+02 -0.42513E+02 -0.22854E+01  0.12975E+01  0.11143E+02      982.00
  0.38448E+00  0.67031E+02    0.20000E+00  0.20000E+00 -0.40000E+00  0.00000E+00  0.00000E+00  0.00000E+00    0.20491E+02  0.22145E+02 -0.42636E+02 -0.23148E+01  0.13282E+01  0.11248E+02      982.00
  0.40833E+00  0.67246E+02    0.21250E+00  0.21250E+00 -0.42500E+00  0.00000E+00  0.00000E+00  0.00000E+00    0.20555E+02  0.22196E+02 -0.42751E+02 -0.23397E+01  0.13567E+01  0.11341E+02      982.00
  0.43217E+00  0.67464E+02    0.22500E+00  0.22500E+00 -0.45000E+00  0.00000E+00  0.00000E+00  0.00000E+00    0.20622E+02  0.22242E+02 -0.42864E+02 -0.23686E+01  0.13892E+01  0.11442E+02      982.00
  0.45600E+00  0.67657E+02    0.23750E+00  0.23750E+00 -0.47500E+00  0.00000E+00  0.00000E+00  0.00000E+00    0.20684E+02  0.22285E+02 -0.42969E+02 -0.23895E+01  0.14166E+01  0.11520E+02      982.00
  0.47982E+00  0.67852E+02    0.25000E+00  0.25000E+00 -0.50000E+00  0.00000E+00  0.00000E+00  0.00000E+00    0.20746E+02  0.22329E+02 -0.43075E+02 -0.24109E+01  0.14454E+01  0.11597E+02      982.00
  0.50362E+00  0.68016E+02    0.26250E+00  0.26250E+00 -0.52500E+00  0.00000E+00  0.00000E+00  0.00000E+00    0.20799E+02  0.22367E+02 -0.43166E+02 -0.24261E+01  0.14706E+01  0.11659E+02      982.00
  0.52742E+00  0.68167E+02    0.27500E+00  0.27500E+00 -0.55000E+00  0.00000E+00  0.00000E+00  0.00000E+00    0.20849E+02  0.22400E+02 -0.43249E+02 -0.24395E+01  0.14948E+01  0.11716E+02      982.00
  0.55121E+00  0.68307E+02    0.28750E+00  0.28750E+00 -0.57500E+00  0.00000E+00  0.00000E+00  0.00000E+00    0.20895E+02  0.22431E+02 -0.43327E+02 -0.24507E+01  0.15176E+01  0.11769E+02      982.00
  0.57500E+00  0.68436E+02    0.30000E+00  0.30000E+00 -0.60000E+00  0.00000E+00  0.00000E+00  0.00000E+00    0.20938E+02  0.22460E+02 -0.43398E+02 -0.24600E+01  0.15392E+01  0.11816E+02      982.00
  0.59878E+00  0.68603E+02    0.31250E+00  0.31250E+00 -0.62500E+00  0.00000E+00  0.00000E+00  0.00000E+00    0.20994E+02  0.22497E+02 -0.43491E+02 -0.24695E+01  0.15690E+01  0.11877E+02      982.00
  0.62255E+00  0.68663E+02    0.32500E+00  0.32500E+00 -0.65000E+00  0.00000E+00  0.00000E+00  0.00000E+00    0.21017E+02  0.22507E+02 -0.43524E+02 -0.24762E+01  0.15812E+01  0.11899E+02      982.00
  0.64632E+00  0.68809E+02    0.33750E+00  0.33750E+00 -0.67500E+00  0.00000E+00  0.00000E+00  0.00000E+00    0.21065E+02  0.22541E+02 -0.43606E+02 -0.24820E+01  0.16084E+01  0.11950E+02      982.00
  0.67009E+00  0.68897E+02    0.35000E+00  0.35000E+00 -0.70000E+00  0.00000E+00  0.00000E+00  0.00000E+00    0.21096E+02  0.22559E+02 -0.43656E+02 -0.24854E+01  0.16277E+01  0.11982E+02      982.00
  0.69385E+00  0.68976E+02    0.36250E+00  0.36250E+00 -0.72500E+00  0.00000E+00  0.00000E+00  0.00000E+00    0.21123E+02  0.22576E+02 -0.43700E+02 -0.24874E+01  0.16444E+01  0.12009E+02      982.00
  0.71761E+00  0.69049E+02    0.37500E+00  0.37500E+00 -0.75000E+00  0.00000E+00  0.00000E+00  0.00000E+00    0.21148E+02  0.22593E+02 -0.43741E+02 -0.24889E+01  0.16603E+01  0.12035E+02      982.00
  0.74136E+00  0.69116E+02    0.38750E+00  0.38750E+00 -0.77500E+00  0.00000E+00  0.00000E+00  0.00000E+00    0.21170E+02  0.22608E+02 -0.43778E+02 -0.24899E+01  0.16756E+01  0.12058E+02      982.00
  0.76512E+00  0.69178E+02    0.40000E+00  0.40000E+00 -0.80000E+00  0.00000E+00  0.00000E+00  0.00000E+00    0.21190E+02  0.22623E+02 -0.43813E+02 -0.24905E+01  0.16903E+01  0.12080E+02      982.00
  0.78887E+00  0.69235E+02    0.41250E+00  0.41250E+00 -0.82500E+00  0.00000E+00  0.00000E+00  0.00000E+00    0.21209E+02  0.22637E+02 -0.43846E+02 -0.24907E+01  0.17044E+01  0.12100E+02      982.00
  0.81261E+00  0.69288E+02    0.42500E+00  0.42500E+00 -0.85000E+00  0.00000E+00  0.00000E+00  0.00000E+00    0.21225E+02  0.22650E+02 -0.43875E+02 -0.24906E+01  0.17181E+01  0.12118E+02      982.00
  0.83636E+00  0.69338E+02    0.43750E+00  0.43750E+00 -0.87500E+00  0.00000E+00  0.00000E+00  0.00000E+00    0.21240E+02  0.22662E+02 -0.43903E+02 -0.24903E+01  0.17313E+01  0.12135E+02      982.00
  0.86010E+00  0.69383E+02    0.45000E+00  0.45000E+00 -0.90000E+00  0.00000E+00  0.00000E+00  0.00000E+00    0.21254E+02  0.22674E+02 -0.43928E+02 -0.24899E+01  0.17441E+01  0.12151E+02      982.00
  0.88385E+00  0.69425E+02    0.46250E+00  0.46250E+00 -0.92500E+00  0.00000E+00  0.00000E+00  0.00000E+00    0.21266E+02  0.22685E+02 -0.43952E+02 -0.24893E+01  0.17566E+01  0.12166E+02      982.00
  0.90759E+00  0.69465E+02    0.47500E+00  0.47500E+00 -0.95000E+00  0.00000E+00  0.00000E+00  0.00000E+00    0.21277E+02  0.22696E+02 -0.43974E+02 -0.24887E+01  0.17687E+01  0.12180E+02      982.00
  0.93133E+00  0.69501E+02    0.48750E+00  0.48750E+00 -0.97500E+00  0.00000E+00  0.00000E+00  0.00000E+00    0.21287E+02  0.22707E+02 -0.43994E+02 -0.24880E+01  0.17805E+01  0.12193E+02      982.00
  0.95506E+00  0.69499E+02    0.50000E+00  0.50000E+00 -0.10000E+01  0.00000E+00  0.00000E+00  0.00000E+00    0.21295E+02  0.22700E+02 -0.43995E+02 -0.24781E+01  0.17698E+01  0.12192E+02      982.00
