          Evm          Svm            E11          E22          E33          E23          E13          E12         SDEV11       SDEV22       SDEV33       SDEV23       SDEV13       SDEV12      TEMP
  0.00000E+00  0.55344E+02    0.00000E+00  0.00000E+00  0.00000E+00  0.00000E+00  0.00000E+00  0.00000E+00    0.14567E+02  0.19173E+02 -0.33740E+02 -0.47740E+01  0.14669E+01  0.11703E+02      982.00
  0.22862E-01  0.55338E+02    0.12500E-01  0.12500E-01 -0.25000E-01  0.00000E+00  0.00000E+00  0.00000E+00    0.14955E+02  0.18797E+02 -0.33752E+02 -0.43251E+01  0.16347E+01  0.11887E+02      982.00
  0.45734E-01  0.55408E+02    0.25000E-01  0.25000E-01 -0.50000E-01  0.00000E+00  0.00000E+00  0.00000E+00    0.15323E+02  0.18464E+02 -0.33787E+02 -0.39428E+01  0.17624E+01  0.12086E+02      982.00
  0.68600E-01  0.55585E+02    0.37500E-01  0.37500E-01 -0.75000E-01  0.00000E+00  0.00000E+00  0.00000E+00    0.15650E+02  0.18210E+02 -0.33859E+02 -0.36187E+01  0.18557E+01  0.12323E+02      982.00
  0.91444E-01  0.55881E+02    0.50000E-01  0.50000E-01 -0.10000E+00  0.00000E+00  0.00000E+00  0.00000E+00    0.15928E+02  0.18051E+02 -0.33979E+02 -0.33433E+01  0.19230E+01  0.12608E+02      982.00
  0.11425E+00  0.56283E+02    0.62500E-01  0.62500E-01 -0.12500E+00  0.00000E+00  0.00000E+00  0.00000E+00    0.16159E+02  0.17985E+02 -0.34144E+02 -0.31112E+01  0.19685E+01  0.12929E+02      982.00
  0.13700E+00  0.56760E+02    0.75000E-01  0.75000E-01 -0.15000E+00  0.00000E+00  0.00000E+00  0.00000E+00    0.16355E+02  0.17989E+02 -0.34343E+02 -0.29113E+01  0.19970E+01  0.13273E+02      982.00
  0.15969E+00  0.57282E+02    0.87500E-01  0.87500E-01 -0.17500E+00  0.00000E+00  0.00000E+00  0.00000E+00    0.16526E+02  0.18039E+02 -0.34564E+02 -0.27368E+01  0.20114E+01  0.13624E+02      982.00
  0.18231E+00  0.57827E+02    0.10000E+00  0.10000E+00 -0.20000E+00  0.00000E+00  0.00000E+00  0.00000E+00    0.16674E+02  0.18123E+02 -0.34797E+02 -0.25981E+01  0.20098E+01  0.13971E+02      982.00
  0.20488E+00  0.58376E+02    0.11250E+00  0.11250E+00 -0.22500E+00  0.00000E+00  0.00000E+00  0.00000E+00    0.16814E+02  0.18220E+02 -0.35034E+02 -0.24713E+01  0.20009E+01  0.14311E+02      982.00
  0.22738E+00  0.58919E+02    0.12500E+00  0.12500E+00 -0.25000E+00  0.00000E+00  0.00000E+00  0.00000E+00    0.16942E+02  0.18328E+02 -0.35270E+02 -0.23810E+01  0.19809E+01  0.14632E+02      982.00
  0.24983E+00  0.59422E+02    0.13750E+00  0.13750E+00 -0.27500E+00  0.00000E+00  0.00000E+00  0.00000E+00    0.17060E+02  0.18432E+02 -0.35492E+02 -0.23148E+01  0.19531E+01  0.14920E+02      982.00
  0.27223E+00  0.59926E+02    0.15000E+00  0.15000E+00 -0.30000E+00  0.00000E+00  0.00000E+00  0.00000E+00    0.17178E+02  0.18535E+02 -0.35713E+02 -0.22607E+01  0.19224E+01  0.15204E+02      982.00
  0.29458E+00  0.60401E+02    0.16250E+00  0.16250E+00 -0.32500E+00  0.00000E+00  0.00000E+00  0.00000E+00    0.17292E+02  0.18632E+02 -0.35924E+02 -0.22206E+01  0.18887E+01  0.15469E+02      982.00
  0.31688E+00  0.60831E+02    0.17500E+00  0.17500E+00 -0.35000E+00  0.00000E+00  0.00000E+00  0.00000E+00    0.17398E+02  0.18715E+02 -0.36113E+02 -0.21803E+01  0.18531E+01  0.15709E+02      982.00
  0.33914E+00  0.61248E+02    0.18750E+00  0.18750E+00 -0.37500E+00  0.00000E+00  0.00000E+00  0.00000E+00    0.17504E+02  0.18794E+02 -0.36297E+02 -0.21618E+01  0.18170E+01  0.15935E+02      982.00
  0.36137E+00  0.61635E+02    0.20000E+00  0.20000E+00 -0.40000E+00  0.00000E+00  0.00000E+00  0.00000E+00    0.17607E+02  0.18859E+02 -0.36466E+02 -0.21384E+01  0.17790E+01  0.16150E+02      982.00
  0.38355E+00  0.61992E+02    0.21250E+00  0.21250E+00 -0.42500E+00  0.00000E+00  0.00000E+00  0.00000E+00    0.17707E+02  0.18917E+02 -0.36624E+02 -0.21322E+01  0.17459E+01  0.16341E+02      982.00
  0.40571E+00  0.62345E+02    0.22500E+00  0.22500E+00 -0.45000E+00  0.00000E+00  0.00000E+00  0.00000E+00    0.17812E+02  0.18964E+02 -0.36777E+02 -0.21195E+01  0.17089E+01  0.16538E+02      982.00
  0.42783E+00  0.62644E+02    0.23750E+00  0.23750E+00 -0.47500E+00  0.00000E+00  0.00000E+00  0.00000E+00    0.17906E+02  0.19002E+02 -0.36908E+02 -0.21162E+01  0.16832E+01  0.16699E+02      982.00
  0.44992E+00  0.62920E+02    0.25000E+00  0.25000E+00 -0.50000E+00  0.00000E+00  0.00000E+00  0.00000E+00    0.17998E+02  0.19031E+02 -0.37029E+02 -0.21152E+01  0.16616E+01  0.16846E+02      982.00
  0.47199E+00  0.63151E+02    0.26250E+00  0.26250E+00 -0.52500E+00  0.00000E+00  0.00000E+00  0.00000E+00    0.18073E+02  0.19062E+02 -0.37135E+02 -0.21294E+01  0.16515E+01  0.16958E+02      982.00
  0.49404E+00  0.63387E+02    0.27500E+00  0.27500E+00 -0.55000E+00  0.00000E+00  0.00000E+00  0.00000E+00    0.18161E+02  0.19077E+02 -0.37237E+02 -0.21259E+01  0.16370E+01  0.17086E+02      982.00
  0.51607E+00  0.63575E+02    0.28750E+00  0.28750E+00 -0.57500E+00  0.00000E+00  0.00000E+00  0.00000E+00    0.18243E+02  0.19074E+02 -0.37317E+02 -0.21156E+01  0.16252E+01  0.17192E+02      982.00
  0.53808E+00  0.63776E+02    0.30000E+00  0.30000E+00 -0.60000E+00  0.00000E+00  0.00000E+00  0.00000E+00    0.18330E+02  0.19075E+02 -0.37404E+02 -0.21119E+01  0.16184E+01  0.17300E+02      982.00
  0.56008E+00  0.63987E+02    0.31250E+00  0.31250E+00 -0.62500E+00  0.00000E+00  0.00000E+00  0.00000E+00    0.18432E+02  0.19064E+02 -0.37496E+02 -0.21038E+01  0.16122E+01  0.17413E+02      982.00
  0.58205E+00  0.64124E+02    0.32500E+00  0.32500E+00 -0.65000E+00  0.00000E+00  0.00000E+00  0.00000E+00    0.18496E+02  0.19062E+02 -0.37557E+02 -0.21054E+01  0.16118E+01  0.17481E+02      982.00
  0.60402E+00  0.64277E+02    0.33750E+00  0.33750E+00 -0.67500E+00  0.00000E+00  0.00000E+00  0.00000E+00    0.18578E+02  0.19047E+02 -0.37625E+02 -0.21016E+01  0.16104E+01  0.17561E+02      982.00
  0.62597E+00  0.64418E+02    0.35000E+00  0.35000E+00 -0.70000E+00  0.00000E+00  0.00000E+00  0.00000E+00    0.18659E+02  0.19028E+02 -0.37687E+02 -0.20980E+01  0.16103E+01  0.17634E+02      982.00
  0.64791E+00  0.64546E+02    0.36250E+00  0.36250E+00 -0.72500E+00  0.00000E+00  0.00000E+00  0.00000E+00    0.18738E+02  0.19006E+02 -0.37744E+02 -0.20950E+01  0.16108E+01  0.17699E+02      982.00
  0.66983E+00  0.64629E+02    0.37500E+00  0.37500E+00 -0.75000E+00  0.00000E+00  0.00000E+00  0.00000E+00    0.18813E+02  0.18968E+02 -0.37781E+02 -0.20882E+01  0.16114E+01  0.17742E+02      982.00
  0.69176E+00  0.64741E+02    0.38750E+00  0.38750E+00 -0.77500E+00  0.00000E+00  0.00000E+00  0.00000E+00    0.18890E+02  0.18943E+02 -0.37832E+02 -0.20872E+01  0.16127E+01  0.17797E+02      982.00
  0.71367E+00  0.64841E+02    0.40000E+00  0.40000E+00 -0.80000E+00  0.00000E+00  0.00000E+00  0.00000E+00    0.18964E+02  0.18914E+02 -0.37879E+02 -0.20868E+01  0.16135E+01  0.17844E+02      982.00
  0.73558E+00  0.64922E+02    0.41250E+00  0.41250E+00 -0.82500E+00  0.00000E+00  0.00000E+00  0.00000E+00    0.19047E+02  0.18868E+02 -0.37915E+02 -0.20842E+01  0.16141E+01  0.17883E+02      982.00
  0.75748E+00  0.65011E+02    0.42500E+00  0.42500E+00 -0.85000E+00  0.00000E+00  0.00000E+00  0.00000E+00    0.19119E+02  0.18839E+02 -0.37958E+02 -0.20855E+01  0.16150E+01  0.17922E+02      982.00
  0.77937E+00  0.65087E+02    0.43750E+00  0.43750E+00 -0.87500E+00  0.00000E+00  0.00000E+00  0.00000E+00    0.19188E+02  0.18808E+02 -0.37995E+02 -0.20872E+01  0.16151E+01  0.17955E+02      982.00
  0.80126E+00  0.65158E+02    0.45000E+00  0.45000E+00 -0.90000E+00  0.00000E+00  0.00000E+00  0.00000E+00    0.19254E+02  0.18776E+02 -0.38030E+02 -0.20895E+01  0.16149E+01  0.17984E+02      982.00
  0.82315E+00  0.65237E+02    0.46250E+00  0.46250E+00 -0.92500E+00  0.00000E+00  0.00000E+00  0.00000E+00    0.19348E+02  0.18720E+02 -0.38068E+02 -0.20913E+01  0.16139E+01  0.18018E+02      982.00
  0.84503E+00  0.65297E+02    0.47500E+00  0.47500E+00 -0.95000E+00  0.00000E+00  0.00000E+00  0.00000E+00    0.19411E+02  0.18688E+02 -0.38099E+02 -0.20942E+01  0.16137E+01  0.18041E+02      982.00
  0.86691E+00  0.65301E+02    0.48750E+00  0.48750E+00 -0.97500E+00  0.00000E+00  0.00000E+00  0.00000E+00    0.19385E+02  0.18715E+02 -0.38100E+02 -0.20911E+01  0.16168E+01  0.18044E+02      982.00
  0.88879E+00  0.65328E+02    0.50000E+00  0.50000E+00 -0.10000E+01  0.00000E+00  0.00000E+00  0.00000E+00    0.19519E+02  0.18595E+02 -0.38114E+02 -0.20806E+01  0.16026E+01  0.18055E+02      982.00
