          Evm          Svm            E11          E22          E33          E23          E13          E12         SDEV11       SDEV22       SDEV33       SDEV23       SDEV13       SDEV12      TEMP
  0.00000E+00  0.54791E+02    0.00000E+00  0.00000E+00  0.00000E+00  0.00000E+00  0.00000E+00  0.00000E+00    0.14279E+02  0.19393E+02 -0.33672E+02 -0.44697E+01  0.17306E+01  0.10992E+02      982.00
  0.23046E-01  0.54765E+02    0.12500E-01  0.12500E-01 -0.25000E-01  0.00000E+00  0.00000E+00  0.00000E+00    0.14637E+02  0.19034E+02 -0.33671E+02 -0.40371E+01  0.19011E+01  0.11166E+02      982.00
  0.46102E-01  0.54824E+02    0.25000E-01  0.25000E-01 -0.50000E-01  0.00000E+00  0.00000E+00  0.00000E+00    0.15025E+02  0.18676E+02 -0.33701E+02 -0.36287E+01  0.20533E+01  0.11374E+02      982.00
  0.69154E-01  0.54976E+02    0.37500E-01  0.37500E-01 -0.75000E-01  0.00000E+00  0.00000E+00  0.00000E+00    0.15395E+02  0.18368E+02 -0.33763E+02 -0.32695E+01  0.21744E+01  0.11613E+02      982.00
  0.92184E-01  0.55235E+02    0.50000E-01  0.50000E-01 -0.10000E+00  0.00000E+00  0.00000E+00  0.00000E+00    0.15709E+02  0.18157E+02 -0.33867E+02 -0.29663E+01  0.22646E+01  0.11888E+02      982.00
  0.11518E+00  0.55598E+02    0.62500E-01  0.62500E-01 -0.12500E+00  0.00000E+00  0.00000E+00  0.00000E+00    0.15970E+02  0.18045E+02 -0.34015E+02 -0.27093E+01  0.23310E+01  0.12197E+02      982.00
  0.13812E+00  0.56051E+02    0.75000E-01  0.75000E-01 -0.15000E+00  0.00000E+00  0.00000E+00  0.00000E+00    0.16190E+02  0.18015E+02 -0.34205E+02 -0.24898E+01  0.23792E+01  0.12533E+02      982.00
  0.16100E+00  0.56560E+02    0.87500E-01  0.87500E-01 -0.17500E+00  0.00000E+00  0.00000E+00  0.00000E+00    0.16379E+02  0.18043E+02 -0.34422E+02 -0.23011E+01  0.24114E+01  0.12878E+02      982.00
  0.18383E+00  0.57096E+02    0.10000E+00  0.10000E+00 -0.20000E+00  0.00000E+00  0.00000E+00  0.00000E+00    0.16546E+02  0.18109E+02 -0.34655E+02 -0.21384E+01  0.24294E+01  0.13222E+02      982.00
  0.20659E+00  0.57640E+02    0.11250E+00  0.11250E+00 -0.22500E+00  0.00000E+00  0.00000E+00  0.00000E+00    0.16694E+02  0.18201E+02 -0.34894E+02 -0.20114E+01  0.24319E+01  0.13554E+02      982.00
  0.22929E+00  0.58179E+02    0.12500E+00  0.12500E+00 -0.25000E+00  0.00000E+00  0.00000E+00  0.00000E+00    0.16834E+02  0.18300E+02 -0.35134E+02 -0.18982E+01  0.24248E+01  0.13873E+02      982.00
  0.25194E+00  0.58683E+02    0.13750E+00  0.13750E+00 -0.27500E+00  0.00000E+00  0.00000E+00  0.00000E+00    0.16959E+02  0.18402E+02 -0.35361E+02 -0.18264E+01  0.24025E+01  0.14158E+02      982.00
  0.27453E+00  0.59188E+02    0.15000E+00  0.15000E+00 -0.30000E+00  0.00000E+00  0.00000E+00  0.00000E+00    0.17084E+02  0.18505E+02 -0.35590E+02 -0.17700E+01  0.23741E+01  0.14439E+02      982.00
  0.29708E+00  0.59653E+02    0.16250E+00  0.16250E+00 -0.32500E+00  0.00000E+00  0.00000E+00  0.00000E+00    0.17202E+02  0.18597E+02 -0.35799E+02 -0.17172E+01  0.23390E+01  0.14700E+02      982.00
  0.31959E+00  0.60107E+02    0.17500E+00  0.17500E+00 -0.35000E+00  0.00000E+00  0.00000E+00  0.00000E+00    0.17319E+02  0.18687E+02 -0.36006E+02 -0.16962E+01  0.22951E+01  0.14944E+02      982.00
  0.34205E+00  0.60534E+02    0.18750E+00  0.18750E+00 -0.37500E+00  0.00000E+00  0.00000E+00  0.00000E+00    0.17432E+02  0.18770E+02 -0.36201E+02 -0.16887E+01  0.22452E+01  0.15172E+02      982.00
  0.36448E+00  0.60934E+02    0.20000E+00  0.20000E+00 -0.40000E+00  0.00000E+00  0.00000E+00  0.00000E+00    0.17540E+02  0.18844E+02 -0.36384E+02 -0.16921E+01  0.21905E+01  0.15387E+02      982.00
  0.38687E+00  0.61309E+02    0.21250E+00  0.21250E+00 -0.42500E+00  0.00000E+00  0.00000E+00  0.00000E+00    0.17646E+02  0.18905E+02 -0.36551E+02 -0.16942E+01  0.21285E+01  0.15594E+02      982.00
  0.40922E+00  0.61688E+02    0.22500E+00  0.22500E+00 -0.45000E+00  0.00000E+00  0.00000E+00  0.00000E+00    0.17756E+02  0.18961E+02 -0.36717E+02 -0.17084E+01  0.20560E+01  0.15807E+02      982.00
  0.43154E+00  0.62014E+02    0.23750E+00  0.23750E+00 -0.47500E+00  0.00000E+00  0.00000E+00  0.00000E+00    0.17853E+02  0.19009E+02 -0.36862E+02 -0.17361E+01  0.19927E+01  0.15984E+02      982.00
  0.45383E+00  0.62318E+02    0.25000E+00  0.25000E+00 -0.50000E+00  0.00000E+00  0.00000E+00  0.00000E+00    0.17945E+02  0.19050E+02 -0.36995E+02 -0.17655E+01  0.19315E+01  0.16153E+02      982.00
  0.47610E+00  0.62604E+02    0.26250E+00  0.26250E+00 -0.52500E+00  0.00000E+00  0.00000E+00  0.00000E+00    0.18034E+02  0.19083E+02 -0.37117E+02 -0.17979E+01  0.18722E+01  0.16313E+02      982.00
  0.49833E+00  0.62871E+02    0.27500E+00  0.27500E+00 -0.55000E+00  0.00000E+00  0.00000E+00  0.00000E+00    0.18121E+02  0.19109E+02 -0.37230E+02 -0.18299E+01  0.18169E+01  0.16467E+02      982.00
  0.52054E+00  0.63121E+02    0.28750E+00  0.28750E+00 -0.57500E+00  0.00000E+00  0.00000E+00  0.00000E+00    0.18205E+02  0.19127E+02 -0.37332E+02 -0.18601E+01  0.17668E+01  0.16613E+02      982.00
  0.54271E+00  0.63337E+02    0.30000E+00  0.30000E+00 -0.60000E+00  0.00000E+00  0.00000E+00  0.00000E+00    0.18273E+02  0.19149E+02 -0.37422E+02 -0.18927E+01  0.17421E+01  0.16735E+02      982.00
  0.56487E+00  0.63556E+02    0.31250E+00  0.31250E+00 -0.62500E+00  0.00000E+00  0.00000E+00  0.00000E+00    0.18354E+02  0.19154E+02 -0.37508E+02 -0.19157E+01  0.17039E+01  0.16870E+02      982.00
  0.58700E+00  0.63761E+02    0.32500E+00  0.32500E+00 -0.65000E+00  0.00000E+00  0.00000E+00  0.00000E+00    0.18433E+02  0.19153E+02 -0.37586E+02 -0.19354E+01  0.16724E+01  0.16998E+02      982.00
  0.60911E+00  0.63950E+02    0.33750E+00  0.33750E+00 -0.67500E+00  0.00000E+00  0.00000E+00  0.00000E+00    0.18511E+02  0.19146E+02 -0.37657E+02 -0.19515E+01  0.16475E+01  0.17118E+02      982.00
  0.63119E+00  0.64116E+02    0.35000E+00  0.35000E+00 -0.70000E+00  0.00000E+00  0.00000E+00  0.00000E+00    0.18612E+02  0.19105E+02 -0.37717E+02 -0.19576E+01  0.16125E+01  0.17230E+02      982.00
  0.65325E+00  0.64258E+02    0.36250E+00  0.36250E+00 -0.72500E+00  0.00000E+00  0.00000E+00  0.00000E+00    0.18661E+02  0.19109E+02 -0.37770E+02 -0.19734E+01  0.16147E+01  0.17317E+02      982.00
  0.67529E+00  0.64408E+02    0.37500E+00  0.37500E+00 -0.75000E+00  0.00000E+00  0.00000E+00  0.00000E+00    0.18739E+02  0.19085E+02 -0.37824E+02 -0.19804E+01  0.16068E+01  0.17414E+02      982.00
  0.69731E+00  0.64546E+02    0.38750E+00  0.38750E+00 -0.77500E+00  0.00000E+00  0.00000E+00  0.00000E+00    0.18817E+02  0.19058E+02 -0.37875E+02 -0.19858E+01  0.16026E+01  0.17502E+02      982.00
  0.71932E+00  0.64673E+02    0.40000E+00  0.40000E+00 -0.80000E+00  0.00000E+00  0.00000E+00  0.00000E+00    0.18894E+02  0.19027E+02 -0.37921E+02 -0.19899E+01  0.16012E+01  0.17583E+02      982.00
  0.74131E+00  0.64789E+02    0.41250E+00  0.41250E+00 -0.82500E+00  0.00000E+00  0.00000E+00  0.00000E+00    0.18971E+02  0.18992E+02 -0.37963E+02 -0.19934E+01  0.16016E+01  0.17656E+02      982.00
  0.76328E+00  0.64894E+02    0.42500E+00  0.42500E+00 -0.85000E+00  0.00000E+00  0.00000E+00  0.00000E+00    0.19047E+02  0.18955E+02 -0.38002E+02 -0.19966E+01  0.16032E+01  0.17722E+02      982.00
  0.78524E+00  0.64959E+02    0.43750E+00  0.43750E+00 -0.87500E+00  0.00000E+00  0.00000E+00  0.00000E+00    0.19119E+02  0.18909E+02 -0.38028E+02 -0.19960E+01  0.16053E+01  0.17760E+02      982.00
  0.80719E+00  0.65051E+02    0.45000E+00  0.45000E+00 -0.90000E+00  0.00000E+00  0.00000E+00  0.00000E+00    0.19193E+02  0.18870E+02 -0.38063E+02 -0.20003E+01  0.16080E+01  0.17815E+02      982.00
  0.82913E+00  0.65134E+02    0.46250E+00  0.46250E+00 -0.92500E+00  0.00000E+00  0.00000E+00  0.00000E+00    0.19265E+02  0.18829E+02 -0.38094E+02 -0.20050E+01  0.16103E+01  0.17863E+02      982.00
  0.85107E+00  0.65173E+02    0.47500E+00  0.47500E+00 -0.95000E+00  0.00000E+00  0.00000E+00  0.00000E+00    0.19271E+02  0.18838E+02 -0.38109E+02 -0.20053E+01  0.16103E+01  0.17888E+02      982.00
  0.87299E+00  0.65188E+02    0.48750E+00  0.48750E+00 -0.97500E+00  0.00000E+00  0.00000E+00  0.00000E+00    0.19393E+02  0.18715E+02 -0.38107E+02 -0.19985E+01  0.16083E+01  0.17907E+02      982.00
  0.89492E+00  0.65236E+02    0.50000E+00  0.50000E+00 -0.10000E+01  0.00000E+00  0.00000E+00  0.00000E+00    0.19483E+02  0.18637E+02 -0.38120E+02 -0.20012E+01  0.16033E+01  0.17943E+02      982.00
