          Evm          Svm            E11          E22          E33          E23          E13          E12         SDEV11       SDEV22       SDEV33       SDEV23       SDEV13       SDEV12      TEMP
  0.00000E+00  0.64651E+02    0.00000E+00  0.00000E+00  0.00000E+00  0.00000E+00  0.00000E+00  0.00000E+00    0.22145E+02  0.19190E+02 -0.41335E+02  0.47825E+01  0.38398E+01 -0.84863E+01      982.00
  0.23976E-01  0.64436E+02    0.12500E-01  0.12500E-01 -0.25000E-01  0.00000E+00  0.00000E+00  0.00000E+00    0.22196E+02  0.19102E+02 -0.41298E+02  0.46075E+01  0.38579E+01 -0.81460E+01      982.00
  0.48010E-01  0.64317E+02    0.25000E-01  0.25000E-01 -0.50000E-01  0.00000E+00  0.00000E+00  0.00000E+00    0.22224E+02  0.19083E+02 -0.41307E+02  0.44959E+01  0.39166E+01 -0.78211E+01      982.00
  0.72094E-01  0.64298E+02    0.37500E-01  0.37500E-01 -0.75000E-01  0.00000E+00  0.00000E+00  0.00000E+00    0.22264E+02  0.19092E+02 -0.41356E+02  0.44339E+01  0.40108E+01 -0.75530E+01      982.00
  0.96214E-01  0.64358E+02    0.50000E-01  0.50000E-01 -0.10000E+00  0.00000E+00  0.00000E+00  0.00000E+00    0.22324E+02  0.19112E+02 -0.41435E+02  0.44027E+01  0.41179E+01 -0.73540E+01      982.00
  0.12036E+00  0.64473E+02    0.62500E-01  0.62500E-01 -0.12500E+00  0.00000E+00  0.00000E+00  0.00000E+00    0.22393E+02  0.19138E+02 -0.41531E+02  0.43891E+01  0.42070E+01 -0.72342E+01      982.00
  0.14451E+00  0.64633E+02    0.75000E-01  0.75000E-01 -0.15000E+00  0.00000E+00  0.00000E+00  0.00000E+00    0.22481E+02  0.19165E+02 -0.41646E+02  0.43804E+01  0.42804E+01 -0.71691E+01      982.00
  0.16868E+00  0.64836E+02    0.87500E-01  0.87500E-01 -0.17500E+00  0.00000E+00  0.00000E+00  0.00000E+00    0.22587E+02  0.19194E+02 -0.41781E+02  0.43749E+01  0.43368E+01 -0.71553E+01      982.00
  0.19284E+00  0.65079E+02    0.10000E+00  0.10000E+00 -0.20000E+00  0.00000E+00  0.00000E+00  0.00000E+00    0.22707E+02  0.19227E+02 -0.41935E+02  0.43707E+01  0.43773E+01 -0.71810E+01      982.00
  0.21701E+00  0.65348E+02    0.11250E+00  0.11250E+00 -0.22500E+00  0.00000E+00  0.00000E+00  0.00000E+00    0.22839E+02  0.19262E+02 -0.42102E+02  0.43667E+01  0.44046E+01 -0.72352E+01      982.00
  0.24117E+00  0.65638E+02    0.12500E+00  0.12500E+00 -0.25000E+00  0.00000E+00  0.00000E+00  0.00000E+00    0.22980E+02  0.19300E+02 -0.42280E+02  0.43629E+01  0.44210E+01 -0.73091E+01      982.00
  0.26532E+00  0.65966E+02    0.13750E+00  0.13750E+00 -0.27500E+00  0.00000E+00  0.00000E+00  0.00000E+00    0.23135E+02  0.19345E+02 -0.42480E+02  0.43618E+01  0.44323E+01 -0.74029E+01      982.00
  0.28947E+00  0.66275E+02    0.15000E+00  0.15000E+00 -0.30000E+00  0.00000E+00  0.00000E+00  0.00000E+00    0.23281E+02  0.19388E+02 -0.42669E+02  0.43584E+01  0.44335E+01 -0.74955E+01      982.00
  0.31361E+00  0.66560E+02    0.16250E+00  0.16250E+00 -0.32500E+00  0.00000E+00  0.00000E+00  0.00000E+00    0.23416E+02  0.19429E+02 -0.42844E+02  0.43528E+01  0.44268E+01 -0.75824E+01      982.00
  0.33775E+00  0.66864E+02    0.17500E+00  0.17500E+00 -0.35000E+00  0.00000E+00  0.00000E+00  0.00000E+00    0.23556E+02  0.19474E+02 -0.43030E+02  0.43503E+01  0.44199E+01 -0.76761E+01      982.00
  0.36189E+00  0.67158E+02    0.18750E+00  0.18750E+00 -0.37500E+00  0.00000E+00  0.00000E+00  0.00000E+00    0.23696E+02  0.19512E+02 -0.43208E+02  0.43468E+01  0.44131E+01 -0.77730E+01      982.00
  0.38601E+00  0.67437E+02    0.20000E+00  0.20000E+00 -0.40000E+00  0.00000E+00  0.00000E+00  0.00000E+00    0.23823E+02  0.19557E+02 -0.43380E+02  0.43445E+01  0.44020E+01 -0.78584E+01      982.00
  0.41014E+00  0.67716E+02    0.21250E+00  0.21250E+00 -0.42500E+00  0.00000E+00  0.00000E+00  0.00000E+00    0.23953E+02  0.19597E+02 -0.43550E+02  0.43423E+01  0.43914E+01 -0.79493E+01      982.00
  0.43425E+00  0.67960E+02    0.22500E+00  0.22500E+00 -0.45000E+00  0.00000E+00  0.00000E+00  0.00000E+00    0.24061E+02  0.19639E+02 -0.43700E+02  0.43400E+01  0.43784E+01 -0.80232E+01      982.00
  0.45837E+00  0.68186E+02    0.23750E+00  0.23750E+00 -0.47500E+00  0.00000E+00  0.00000E+00  0.00000E+00    0.24160E+02  0.19679E+02 -0.43839E+02  0.43387E+01  0.43654E+01 -0.80922E+01      982.00
  0.48248E+00  0.68418E+02    0.25000E+00  0.25000E+00 -0.50000E+00  0.00000E+00  0.00000E+00  0.00000E+00    0.24265E+02  0.19716E+02 -0.43981E+02  0.43356E+01  0.43509E+01 -0.81690E+01      982.00
  0.50658E+00  0.68588E+02    0.26250E+00  0.26250E+00 -0.52500E+00  0.00000E+00  0.00000E+00  0.00000E+00    0.24340E+02  0.19744E+02 -0.44084E+02  0.43361E+01  0.43421E+01 -0.82227E+01      982.00
  0.53068E+00  0.68765E+02    0.27500E+00  0.27500E+00 -0.55000E+00  0.00000E+00  0.00000E+00  0.00000E+00    0.24415E+02  0.19777E+02 -0.44193E+02  0.43349E+01  0.43300E+01 -0.82779E+01      982.00
  0.55478E+00  0.68926E+02    0.28750E+00  0.28750E+00 -0.57500E+00  0.00000E+00  0.00000E+00  0.00000E+00    0.24484E+02  0.19808E+02 -0.44292E+02  0.43339E+01  0.43186E+01 -0.83303E+01      982.00
  0.57888E+00  0.69109E+02    0.30000E+00  0.30000E+00 -0.60000E+00  0.00000E+00  0.00000E+00  0.00000E+00    0.24564E+02  0.19838E+02 -0.44402E+02  0.43296E+01  0.43021E+01 -0.83962E+01      982.00
  0.60297E+00  0.69245E+02    0.31250E+00  0.31250E+00 -0.62500E+00  0.00000E+00  0.00000E+00  0.00000E+00    0.24623E+02  0.19861E+02 -0.44484E+02  0.43282E+01  0.42921E+01 -0.84451E+01      982.00
  0.62707E+00  0.69362E+02    0.32500E+00  0.32500E+00 -0.65000E+00  0.00000E+00  0.00000E+00  0.00000E+00    0.24674E+02  0.19881E+02 -0.44555E+02  0.43265E+01  0.42825E+01 -0.84888E+01      982.00
  0.65115E+00  0.69470E+02    0.33750E+00  0.33750E+00 -0.67500E+00  0.00000E+00  0.00000E+00  0.00000E+00    0.24719E+02  0.19900E+02 -0.44619E+02  0.43251E+01  0.42736E+01 -0.85307E+01      982.00
  0.67524E+00  0.69536E+02    0.35000E+00  0.35000E+00 -0.70000E+00  0.00000E+00  0.00000E+00  0.00000E+00    0.24749E+02  0.19909E+02 -0.44659E+02  0.43256E+01  0.42696E+01 -0.85546E+01      982.00
  0.69932E+00  0.69640E+02    0.36250E+00  0.36250E+00 -0.72500E+00  0.00000E+00  0.00000E+00  0.00000E+00    0.24793E+02  0.19926E+02 -0.44719E+02  0.43245E+01  0.42618E+01 -0.85974E+01      982.00
  0.72340E+00  0.69725E+02    0.37500E+00  0.37500E+00 -0.75000E+00  0.00000E+00  0.00000E+00  0.00000E+00    0.24829E+02  0.19940E+02 -0.44769E+02  0.43223E+01  0.42538E+01 -0.86349E+01      982.00
  0.74748E+00  0.69801E+02    0.38750E+00  0.38750E+00 -0.77500E+00  0.00000E+00  0.00000E+00  0.00000E+00    0.24862E+02  0.19951E+02 -0.44813E+02  0.43202E+01  0.42461E+01 -0.86713E+01      982.00
  0.77156E+00  0.69871E+02    0.40000E+00  0.40000E+00 -0.80000E+00  0.00000E+00  0.00000E+00  0.00000E+00    0.24893E+02  0.19960E+02 -0.44852E+02  0.43179E+01  0.42387E+01 -0.87067E+01      982.00
  0.79563E+00  0.69934E+02    0.41250E+00  0.41250E+00 -0.82500E+00  0.00000E+00  0.00000E+00  0.00000E+00    0.24921E+02  0.19967E+02 -0.44888E+02  0.43155E+01  0.42317E+01 -0.87412E+01      982.00
  0.81970E+00  0.69992E+02    0.42500E+00  0.42500E+00 -0.85000E+00  0.00000E+00  0.00000E+00  0.00000E+00    0.24946E+02  0.19973E+02 -0.44919E+02  0.43132E+01  0.42250E+01 -0.87748E+01      982.00
  0.84377E+00  0.70044E+02    0.43750E+00  0.43750E+00 -0.87500E+00  0.00000E+00  0.00000E+00  0.00000E+00    0.24970E+02  0.19977E+02 -0.44947E+02  0.43108E+01  0.42187E+01 -0.88075E+01      982.00
  0.86783E+00  0.70092E+02    0.45000E+00  0.45000E+00 -0.90000E+00  0.00000E+00  0.00000E+00  0.00000E+00    0.24992E+02  0.19980E+02 -0.44972E+02  0.43084E+01  0.42126E+01 -0.88396E+01      982.00
  0.89189E+00  0.70080E+02    0.46250E+00  0.46250E+00 -0.92500E+00  0.00000E+00  0.00000E+00  0.00000E+00    0.24996E+02  0.19968E+02 -0.44964E+02  0.42888E+01  0.41953E+01 -0.88553E+01      982.00
  0.91595E+00  0.70062E+02    0.47500E+00  0.47500E+00 -0.95000E+00  0.00000E+00  0.00000E+00  0.00000E+00    0.24997E+02  0.19955E+02 -0.44952E+02  0.42696E+01  0.41756E+01 -0.88722E+01      982.00
  0.94001E+00  0.70047E+02    0.48750E+00  0.48750E+00 -0.97500E+00  0.00000E+00  0.00000E+00  0.00000E+00    0.24998E+02  0.19942E+02 -0.44940E+02  0.42514E+01  0.41565E+01 -0.88919E+01      982.00
  0.96407E+00  0.70036E+02    0.50000E+00  0.50000E+00 -0.10000E+01  0.00000E+00  0.00000E+00  0.00000E+00    0.24996E+02  0.19931E+02 -0.44928E+02  0.42428E+01  0.41468E+01 -0.89174E+01      982.00
