          Evm          Svm            E11          E22          E33          E23          E13          E12         SDEV11       SDEV22       SDEV33       SDEV23       SDEV13       SDEV12      TEMP
  0.00000E+00  0.58616E+02    0.00000E+00  0.00000E+00  0.00000E+00  0.00000E+00  0.00000E+00  0.00000E+00    0.20865E+02  0.15049E+02 -0.35914E+02  0.58795E+01  0.63841E+01 -0.97029E+01      982.00
  0.22976E-01  0.58778E+02    0.12500E-01  0.12500E-01 -0.25000E-01  0.00000E+00  0.00000E+00  0.00000E+00    0.20763E+02  0.15333E+02 -0.36096E+02  0.57530E+01  0.64745E+01 -0.95935E+01      982.00
  0.46005E-01  0.58959E+02    0.25000E-01  0.25000E-01 -0.50000E-01  0.00000E+00  0.00000E+00  0.00000E+00    0.20725E+02  0.15559E+02 -0.36283E+02  0.56450E+01  0.65252E+01 -0.94998E+01      982.00
  0.69083E-01  0.59185E+02    0.37500E-01  0.37500E-01 -0.75000E-01  0.00000E+00  0.00000E+00  0.00000E+00    0.20740E+02  0.15750E+02 -0.36490E+02  0.55557E+01  0.65504E+01 -0.94333E+01      982.00
  0.92203E-01  0.59433E+02    0.50000E-01  0.50000E-01 -0.10000E+00  0.00000E+00  0.00000E+00  0.00000E+00    0.20787E+02  0.15918E+02 -0.36705E+02  0.54737E+01  0.65540E+01 -0.93898E+01      982.00
  0.11536E+00  0.59723E+02    0.62500E-01  0.62500E-01 -0.12500E+00  0.00000E+00  0.00000E+00  0.00000E+00    0.20877E+02  0.16062E+02 -0.36939E+02  0.54016E+01  0.65392E+01 -0.93725E+01      982.00
  0.13856E+00  0.60045E+02    0.75000E-01  0.75000E-01 -0.15000E+00  0.00000E+00  0.00000E+00  0.00000E+00    0.20996E+02  0.16192E+02 -0.37189E+02  0.53355E+01  0.65100E+01 -0.93768E+01      982.00
  0.16178E+00  0.60397E+02    0.87500E-01  0.87500E-01 -0.17500E+00  0.00000E+00  0.00000E+00  0.00000E+00    0.21139E+02  0.16314E+02 -0.37453E+02  0.52746E+01  0.64701E+01 -0.93999E+01      982.00
  0.18504E+00  0.60777E+02    0.10000E+00  0.10000E+00 -0.20000E+00  0.00000E+00  0.00000E+00  0.00000E+00    0.21301E+02  0.16429E+02 -0.37731E+02  0.52198E+01  0.64240E+01 -0.94398E+01      982.00
  0.20832E+00  0.61179E+02    0.11250E+00  0.11250E+00 -0.22500E+00  0.00000E+00  0.00000E+00  0.00000E+00    0.21476E+02  0.16545E+02 -0.38021E+02  0.51692E+01  0.63710E+01 -0.94895E+01      982.00
  0.23162E+00  0.61599E+02    0.12500E+00  0.12500E+00 -0.25000E+00  0.00000E+00  0.00000E+00  0.00000E+00    0.21657E+02  0.16663E+02 -0.38320E+02  0.51237E+01  0.63146E+01 -0.95469E+01      982.00
  0.25495E+00  0.62032E+02    0.13750E+00  0.13750E+00 -0.27500E+00  0.00000E+00  0.00000E+00  0.00000E+00    0.21842E+02  0.16784E+02 -0.38626E+02  0.50831E+01  0.62564E+01 -0.96085E+01      982.00
  0.27830E+00  0.62482E+02    0.15000E+00  0.15000E+00 -0.30000E+00  0.00000E+00  0.00000E+00  0.00000E+00    0.22033E+02  0.16907E+02 -0.38940E+02  0.50461E+01  0.61983E+01 -0.96759E+01      982.00
  0.30167E+00  0.62947E+02    0.16250E+00  0.16250E+00 -0.32500E+00  0.00000E+00  0.00000E+00  0.00000E+00    0.22223E+02  0.17042E+02 -0.39266E+02  0.50129E+01  0.61372E+01 -0.97435E+01      982.00
  0.32506E+00  0.63381E+02    0.17500E+00  0.17500E+00 -0.35000E+00  0.00000E+00  0.00000E+00  0.00000E+00    0.22391E+02  0.17181E+02 -0.39572E+02  0.49846E+01  0.60783E+01 -0.97994E+01      982.00
  0.34848E+00  0.63836E+02    0.18750E+00  0.18750E+00 -0.37500E+00  0.00000E+00  0.00000E+00  0.00000E+00    0.22556E+02  0.17336E+02 -0.39893E+02  0.49616E+01  0.60181E+01 -0.98548E+01      982.00
  0.37191E+00  0.64244E+02    0.20000E+00  0.20000E+00 -0.40000E+00  0.00000E+00  0.00000E+00  0.00000E+00    0.22698E+02  0.17485E+02 -0.40184E+02  0.49386E+01  0.59615E+01 -0.98986E+01      982.00
  0.39537E+00  0.64623E+02    0.21250E+00  0.21250E+00 -0.42500E+00  0.00000E+00  0.00000E+00  0.00000E+00    0.22824E+02  0.17634E+02 -0.40458E+02  0.49141E+01  0.59042E+01 -0.99333E+01      982.00
  0.41884E+00  0.64981E+02    0.22500E+00  0.22500E+00 -0.45000E+00  0.00000E+00  0.00000E+00  0.00000E+00    0.22939E+02  0.17776E+02 -0.40715E+02  0.48916E+01  0.58602E+01 -0.99645E+01      982.00
  0.44234E+00  0.65341E+02    0.23750E+00  0.23750E+00 -0.47500E+00  0.00000E+00  0.00000E+00  0.00000E+00    0.23048E+02  0.17927E+02 -0.40975E+02  0.48707E+01  0.58135E+01 -0.99921E+01      982.00
  0.46586E+00  0.65680E+02    0.25000E+00  0.25000E+00 -0.50000E+00  0.00000E+00  0.00000E+00  0.00000E+00    0.23145E+02  0.18077E+02 -0.41222E+02  0.48495E+01  0.57681E+01 -0.10014E+02      982.00
  0.48939E+00  0.65998E+02    0.26250E+00  0.26250E+00 -0.52500E+00  0.00000E+00  0.00000E+00  0.00000E+00    0.23232E+02  0.18225E+02 -0.41456E+02  0.48280E+01  0.57249E+01 -0.10029E+02      982.00
  0.51295E+00  0.66286E+02    0.27500E+00  0.27500E+00 -0.55000E+00  0.00000E+00  0.00000E+00  0.00000E+00    0.23305E+02  0.18362E+02 -0.41667E+02  0.48098E+01  0.56914E+01 -0.10043E+02      982.00
  0.53652E+00  0.66566E+02    0.28750E+00  0.28750E+00 -0.57500E+00  0.00000E+00  0.00000E+00  0.00000E+00    0.23372E+02  0.18504E+02 -0.41877E+02  0.47865E+01  0.56521E+01 -0.10050E+02      982.00
  0.56011E+00  0.66828E+02    0.30000E+00  0.30000E+00 -0.60000E+00  0.00000E+00  0.00000E+00  0.00000E+00    0.23431E+02  0.18643E+02 -0.42074E+02  0.47628E+01  0.56150E+01 -0.10053E+02      982.00
  0.58372E+00  0.67071E+02    0.31250E+00  0.31250E+00 -0.62500E+00  0.00000E+00  0.00000E+00  0.00000E+00    0.23481E+02  0.18778E+02 -0.42259E+02  0.47383E+01  0.55793E+01 -0.10053E+02      982.00
  0.60735E+00  0.67297E+02    0.32500E+00  0.32500E+00 -0.65000E+00  0.00000E+00  0.00000E+00  0.00000E+00    0.23523E+02  0.18909E+02 -0.42432E+02  0.47132E+01  0.55454E+01 -0.10050E+02      982.00
  0.63099E+00  0.67507E+02    0.33750E+00  0.33750E+00 -0.67500E+00  0.00000E+00  0.00000E+00  0.00000E+00    0.23558E+02  0.19036E+02 -0.42594E+02  0.46874E+01  0.55132E+01 -0.10044E+02      982.00
  0.65465E+00  0.67702E+02    0.35000E+00  0.35000E+00 -0.70000E+00  0.00000E+00  0.00000E+00  0.00000E+00    0.23587E+02  0.19159E+02 -0.42746E+02  0.46610E+01  0.54828E+01 -0.10037E+02      982.00
  0.67833E+00  0.67882E+02    0.36250E+00  0.36250E+00 -0.72500E+00  0.00000E+00  0.00000E+00  0.00000E+00    0.23611E+02  0.19277E+02 -0.42888E+02  0.46341E+01  0.54540E+01 -0.10028E+02      982.00
  0.70202E+00  0.68050E+02    0.37500E+00  0.37500E+00 -0.75000E+00  0.00000E+00  0.00000E+00  0.00000E+00    0.23629E+02  0.19392E+02 -0.43020E+02  0.46067E+01  0.54269E+01 -0.10018E+02      982.00
  0.72573E+00  0.68207E+02    0.38750E+00  0.38750E+00 -0.77500E+00  0.00000E+00  0.00000E+00  0.00000E+00    0.23633E+02  0.19518E+02 -0.43151E+02  0.45729E+01  0.53912E+01 -0.10000E+02      982.00
  0.74945E+00  0.68346E+02    0.40000E+00  0.40000E+00 -0.80000E+00  0.00000E+00  0.00000E+00  0.00000E+00    0.23650E+02  0.19608E+02 -0.43258E+02  0.45507E+01  0.53767E+01 -0.99952E+01      982.00
  0.77319E+00  0.68479E+02    0.41250E+00  0.41250E+00 -0.82500E+00  0.00000E+00  0.00000E+00  0.00000E+00    0.23646E+02  0.19725E+02 -0.43371E+02  0.45153E+01  0.53458E+01 -0.99769E+01      982.00
  0.79694E+00  0.68599E+02    0.42500E+00  0.42500E+00 -0.85000E+00  0.00000E+00  0.00000E+00  0.00000E+00    0.23646E+02  0.19823E+02 -0.43469E+02  0.44855E+01  0.53242E+01 -0.99641E+01      982.00
  0.82070E+00  0.68710E+02    0.43750E+00  0.43750E+00 -0.87500E+00  0.00000E+00  0.00000E+00  0.00000E+00    0.23643E+02  0.19918E+02 -0.43561E+02  0.44560E+01  0.53054E+01 -0.99521E+01      982.00
  0.84448E+00  0.68803E+02    0.45000E+00  0.45000E+00 -0.90000E+00  0.00000E+00  0.00000E+00  0.00000E+00    0.23640E+02  0.19995E+02 -0.43635E+02  0.44335E+01  0.52953E+01 -0.99439E+01      982.00
  0.86826E+00  0.68840E+02    0.46250E+00  0.46250E+00 -0.92500E+00  0.00000E+00  0.00000E+00  0.00000E+00    0.23624E+02  0.20062E+02 -0.43686E+02  0.43793E+01  0.52513E+01 -0.99169E+01      982.00
  0.89206E+00  0.68874E+02    0.47500E+00  0.47500E+00 -0.95000E+00  0.00000E+00  0.00000E+00  0.00000E+00    0.23605E+02  0.20122E+02 -0.43727E+02  0.43401E+01  0.52226E+01 -0.98991E+01      982.00
  0.91587E+00  0.68898E+02    0.48750E+00  0.48750E+00 -0.97500E+00  0.00000E+00  0.00000E+00  0.00000E+00    0.23579E+02  0.20186E+02 -0.43765E+02  0.42945E+01  0.51883E+01 -0.98759E+01      982.00
  0.93969E+00  0.68916E+02    0.50000E+00  0.50000E+00 -0.10000E+01  0.00000E+00  0.00000E+00  0.00000E+00    0.23556E+02  0.20239E+02 -0.43795E+02  0.42510E+01  0.51559E+01 -0.98592E+01      982.00
