          Evm          Svm            E11          E22          E33          E23          E13          E12         SDEV11       SDEV22       SDEV33       SDEV23       SDEV13       SDEV12      TEMP
  0.00000E+00  0.54771E+02    0.00000E+00  0.00000E+00  0.00000E+00  0.00000E+00  0.00000E+00  0.00000E+00    0.20230E+02  0.13382E+02 -0.33612E+02 -0.17321E+01  0.49344E+01  0.10656E+02      982.00
  0.23013E-01  0.54719E+02    0.12500E-01  0.12500E-01 -0.25000E-01  0.00000E+00  0.00000E+00  0.00000E+00    0.19898E+02  0.13712E+02 -0.33611E+02 -0.18989E+01  0.45140E+01  0.10829E+02      982.00
  0.46047E-01  0.54761E+02    0.25000E-01  0.25000E-01 -0.50000E-01  0.00000E+00  0.00000E+00  0.00000E+00    0.19549E+02  0.14098E+02 -0.33647E+02 -0.20598E+01  0.41006E+01  0.11046E+02      982.00
  0.69088E-01  0.54891E+02    0.37500E-01  0.37500E-01 -0.75000E-01  0.00000E+00  0.00000E+00  0.00000E+00    0.19241E+02  0.14472E+02 -0.33713E+02 -0.21943E+01  0.37336E+01  0.11291E+02      982.00
  0.92120E-01  0.55122E+02    0.50000E-01  0.50000E-01 -0.10000E+00  0.00000E+00  0.00000E+00  0.00000E+00    0.19025E+02  0.14790E+02 -0.33815E+02 -0.22988E+01  0.34255E+01  0.11564E+02      982.00
  0.11512E+00  0.55453E+02    0.62500E-01  0.62500E-01 -0.12500E+00  0.00000E+00  0.00000E+00  0.00000E+00    0.18918E+02  0.15040E+02 -0.33958E+02 -0.23779E+01  0.31711E+01  0.11862E+02      982.00
  0.13809E+00  0.55872E+02    0.75000E-01  0.75000E-01 -0.15000E+00  0.00000E+00  0.00000E+00  0.00000E+00    0.18900E+02  0.15238E+02 -0.34138E+02 -0.24398E+01  0.29601E+01  0.12185E+02      982.00
  0.16100E+00  0.56353E+02    0.87500E-01  0.87500E-01 -0.17500E+00  0.00000E+00  0.00000E+00  0.00000E+00    0.18954E+02  0.15394E+02 -0.34348E+02 -0.24835E+01  0.27893E+01  0.12514E+02      982.00
  0.18386E+00  0.56841E+02    0.10000E+00  0.10000E+00 -0.20000E+00  0.00000E+00  0.00000E+00  0.00000E+00    0.19046E+02  0.15515E+02 -0.34562E+02 -0.25167E+01  0.26350E+01  0.12832E+02      982.00
  0.20666E+00  0.57357E+02    0.11250E+00  0.11250E+00 -0.22500E+00  0.00000E+00  0.00000E+00  0.00000E+00    0.19177E+02  0.15614E+02 -0.34791E+02 -0.25300E+01  0.25285E+01  0.13147E+02      982.00
  0.22941E+00  0.57873E+02    0.12500E+00  0.12500E+00 -0.25000E+00  0.00000E+00  0.00000E+00  0.00000E+00    0.19318E+02  0.15703E+02 -0.35021E+02 -0.25324E+01  0.24488E+01  0.13450E+02      982.00
  0.25210E+00  0.58379E+02    0.13750E+00  0.13750E+00 -0.27500E+00  0.00000E+00  0.00000E+00  0.00000E+00    0.19460E+02  0.15788E+02 -0.35248E+02 -0.25252E+01  0.23925E+01  0.13739E+02      982.00
  0.27474E+00  0.58866E+02    0.15000E+00  0.15000E+00 -0.30000E+00  0.00000E+00  0.00000E+00  0.00000E+00    0.19596E+02  0.15871E+02 -0.35467E+02 -0.25094E+01  0.23567E+01  0.14012E+02      982.00
  0.29733E+00  0.59332E+02    0.16250E+00  0.16250E+00 -0.32500E+00  0.00000E+00  0.00000E+00  0.00000E+00    0.19721E+02  0.15955E+02 -0.35676E+02 -0.24861E+01  0.23385E+01  0.14270E+02      982.00
  0.31988E+00  0.59754E+02    0.17500E+00  0.17500E+00 -0.35000E+00  0.00000E+00  0.00000E+00  0.00000E+00    0.19829E+02  0.16036E+02 -0.35864E+02 -0.24587E+01  0.23247E+01  0.14507E+02      982.00
  0.34239E+00  0.60203E+02    0.18750E+00  0.18750E+00 -0.37500E+00  0.00000E+00  0.00000E+00  0.00000E+00    0.19931E+02  0.16127E+02 -0.36058E+02 -0.24195E+01  0.23176E+01  0.14769E+02      982.00
  0.36485E+00  0.60591E+02    0.20000E+00  0.20000E+00 -0.40000E+00  0.00000E+00  0.00000E+00  0.00000E+00    0.20011E+02  0.16220E+02 -0.36231E+02 -0.23777E+01  0.23405E+01  0.14984E+02      982.00
  0.38727E+00  0.60955E+02    0.21250E+00  0.21250E+00 -0.42500E+00  0.00000E+00  0.00000E+00  0.00000E+00    0.20073E+02  0.16317E+02 -0.36390E+02 -0.23339E+01  0.23704E+01  0.15189E+02      982.00
  0.40966E+00  0.61297E+02    0.22500E+00  0.22500E+00 -0.45000E+00  0.00000E+00  0.00000E+00  0.00000E+00    0.20119E+02  0.16418E+02 -0.36538E+02 -0.22898E+01  0.24034E+01  0.15386E+02      982.00
  0.43201E+00  0.61603E+02    0.23750E+00  0.23750E+00 -0.47500E+00  0.00000E+00  0.00000E+00  0.00000E+00    0.20155E+02  0.16514E+02 -0.36668E+02 -0.22550E+01  0.24388E+01  0.15562E+02      982.00
  0.45434E+00  0.61903E+02    0.25000E+00  0.25000E+00 -0.50000E+00  0.00000E+00  0.00000E+00  0.00000E+00    0.20177E+02  0.16614E+02 -0.36791E+02 -0.22193E+01  0.24707E+01  0.15746E+02      982.00
  0.47662E+00  0.62196E+02    0.26250E+00  0.26250E+00 -0.52500E+00  0.00000E+00  0.00000E+00  0.00000E+00    0.20183E+02  0.16725E+02 -0.36908E+02 -0.21850E+01  0.24979E+01  0.15931E+02      982.00
  0.49888E+00  0.62455E+02    0.27500E+00  0.27500E+00 -0.55000E+00  0.00000E+00  0.00000E+00  0.00000E+00    0.20166E+02  0.16841E+02 -0.37007E+02 -0.21588E+01  0.25147E+01  0.16103E+02      982.00
  0.52110E+00  0.62707E+02    0.28750E+00  0.28750E+00 -0.57500E+00  0.00000E+00  0.00000E+00  0.00000E+00    0.20138E+02  0.16964E+02 -0.37101E+02 -0.21404E+01  0.25248E+01  0.16275E+02      982.00
  0.54328E+00  0.62938E+02    0.30000E+00  0.30000E+00 -0.60000E+00  0.00000E+00  0.00000E+00  0.00000E+00    0.20098E+02  0.17086E+02 -0.37185E+02 -0.21296E+01  0.25281E+01  0.16437E+02      982.00
  0.56544E+00  0.63160E+02    0.31250E+00  0.31250E+00 -0.62500E+00  0.00000E+00  0.00000E+00  0.00000E+00    0.20045E+02  0.17218E+02 -0.37263E+02 -0.21298E+01  0.25171E+01  0.16598E+02      982.00
  0.58756E+00  0.63369E+02    0.32500E+00  0.32500E+00 -0.65000E+00  0.00000E+00  0.00000E+00  0.00000E+00    0.19980E+02  0.17353E+02 -0.37334E+02 -0.21390E+01  0.24947E+01  0.16753E+02      982.00
  0.60966E+00  0.63590E+02    0.33750E+00  0.33750E+00 -0.67500E+00  0.00000E+00  0.00000E+00  0.00000E+00    0.19922E+02  0.17487E+02 -0.37409E+02 -0.21515E+01  0.24704E+01  0.16915E+02      982.00
  0.63172E+00  0.63768E+02    0.35000E+00  0.35000E+00 -0.70000E+00  0.00000E+00  0.00000E+00  0.00000E+00    0.19843E+02  0.17624E+02 -0.37467E+02 -0.21725E+01  0.24313E+01  0.17052E+02      982.00
  0.65375E+00  0.63931E+02    0.36250E+00  0.36250E+00 -0.72500E+00  0.00000E+00  0.00000E+00  0.00000E+00    0.19758E+02  0.17763E+02 -0.37520E+02 -0.21977E+01  0.23834E+01  0.17177E+02      982.00
  0.67576E+00  0.64101E+02    0.37500E+00  0.37500E+00 -0.75000E+00  0.00000E+00  0.00000E+00  0.00000E+00    0.19685E+02  0.17892E+02 -0.37577E+02 -0.22166E+01  0.23451E+01  0.17302E+02      982.00
  0.69774E+00  0.64243E+02    0.38750E+00  0.38750E+00 -0.77500E+00  0.00000E+00  0.00000E+00  0.00000E+00    0.19604E+02  0.18021E+02 -0.37625E+02 -0.22400E+01  0.22977E+01  0.17409E+02      982.00
  0.71970E+00  0.64375E+02    0.40000E+00  0.40000E+00 -0.80000E+00  0.00000E+00  0.00000E+00  0.00000E+00    0.19526E+02  0.18144E+02 -0.37670E+02 -0.22612E+01  0.22510E+01  0.17506E+02      982.00
  0.74165E+00  0.64508E+02    0.41250E+00  0.41250E+00 -0.82500E+00  0.00000E+00  0.00000E+00  0.00000E+00    0.19453E+02  0.18263E+02 -0.37716E+02 -0.22831E+01  0.22034E+01  0.17600E+02      982.00
  0.76357E+00  0.64623E+02    0.42500E+00  0.42500E+00 -0.85000E+00  0.00000E+00  0.00000E+00  0.00000E+00    0.19386E+02  0.18373E+02 -0.37758E+02 -0.22972E+01  0.21620E+01  0.17680E+02      982.00
  0.78548E+00  0.64730E+02    0.43750E+00  0.43750E+00 -0.87500E+00  0.00000E+00  0.00000E+00  0.00000E+00    0.19324E+02  0.18474E+02 -0.37799E+02 -0.23071E+01  0.21243E+01  0.17750E+02      982.00
  0.80738E+00  0.64825E+02    0.45000E+00  0.45000E+00 -0.90000E+00  0.00000E+00  0.00000E+00  0.00000E+00    0.19268E+02  0.18567E+02 -0.37836E+02 -0.23161E+01  0.20849E+01  0.17812E+02      982.00
  0.82927E+00  0.64918E+02    0.46250E+00  0.46250E+00 -0.92500E+00  0.00000E+00  0.00000E+00  0.00000E+00    0.19219E+02  0.18655E+02 -0.37874E+02 -0.23187E+01  0.20544E+01  0.17869E+02      982.00
  0.85115E+00  0.64984E+02    0.47500E+00  0.47500E+00 -0.95000E+00  0.00000E+00  0.00000E+00  0.00000E+00    0.19171E+02  0.18731E+02 -0.37902E+02 -0.23196E+01  0.20197E+01  0.17908E+02      982.00
  0.87302E+00  0.65021E+02    0.48750E+00  0.48750E+00 -0.97500E+00  0.00000E+00  0.00000E+00  0.00000E+00    0.19124E+02  0.18791E+02 -0.37914E+02 -0.23083E+01  0.19921E+01  0.17939E+02      982.00
  0.89489E+00  0.65058E+02    0.50000E+00  0.50000E+00 -0.10000E+01  0.00000E+00  0.00000E+00  0.00000E+00    0.19084E+02  0.18844E+02 -0.37928E+02 -0.22963E+01  0.19683E+01  0.17966E+02      982.00
