          Evm          Svm            E11          E22          E33          E23          E13          E12         SDEV11       SDEV22       SDEV33       SDEV23       SDEV13       SDEV12      TEMP
  0.00000E+00  0.61255E+02    0.00000E+00  0.00000E+00  0.00000E+00  0.00000E+00  0.00000E+00  0.00000E+00    0.16716E+02  0.20217E+02 -0.36933E+02 -0.10219E+01  0.24008E+01  0.14758E+02      982.00
  0.22610E-01  0.61290E+02    0.12500E-01  0.12500E-01 -0.25000E-01  0.00000E+00  0.00000E+00  0.00000E+00    0.16869E+02  0.20077E+02 -0.36946E+02 -0.10214E+01  0.23548E+01  0.14807E+02      982.00
  0.45216E-01  0.61353E+02    0.25000E-01  0.25000E-01 -0.50000E-01  0.00000E+00  0.00000E+00  0.00000E+00    0.16961E+02  0.20023E+02 -0.36984E+02 -0.10382E+01  0.23125E+01  0.14836E+02      982.00
  0.67821E-01  0.61411E+02    0.37500E-01  0.37500E-01 -0.75000E-01  0.00000E+00  0.00000E+00  0.00000E+00    0.17042E+02  0.19994E+02 -0.37036E+02 -0.10789E+01  0.22657E+01  0.14828E+02      982.00
  0.90437E-01  0.61471E+02    0.50000E-01  0.50000E-01 -0.10000E+00  0.00000E+00  0.00000E+00  0.00000E+00    0.17082E+02  0.20018E+02 -0.37101E+02 -0.11404E+01  0.22128E+01  0.14795E+02      982.00
  0.11307E+00  0.61549E+02    0.62500E-01  0.62500E-01 -0.12500E+00  0.00000E+00  0.00000E+00  0.00000E+00    0.17093E+02  0.20093E+02 -0.37186E+02 -0.12010E+01  0.21506E+01  0.14742E+02      982.00
  0.13573E+00  0.61644E+02    0.75000E-01  0.75000E-01 -0.15000E+00  0.00000E+00  0.00000E+00  0.00000E+00    0.17084E+02  0.20199E+02 -0.37283E+02 -0.12511E+01  0.20709E+01  0.14692E+02      982.00
  0.15841E+00  0.61782E+02    0.87500E-01  0.87500E-01 -0.17500E+00  0.00000E+00  0.00000E+00  0.00000E+00    0.17085E+02  0.20316E+02 -0.37401E+02 -0.12818E+01  0.19793E+01  0.14664E+02      982.00
  0.18111E+00  0.61941E+02    0.10000E+00  0.10000E+00 -0.20000E+00  0.00000E+00  0.00000E+00  0.00000E+00    0.17080E+02  0.20442E+02 -0.37521E+02 -0.12981E+01  0.18752E+01  0.14663E+02      982.00
  0.20382E+00  0.62132E+02    0.11250E+00  0.11250E+00 -0.22500E+00  0.00000E+00  0.00000E+00  0.00000E+00    0.17082E+02  0.20568E+02 -0.37650E+02 -0.12992E+01  0.17693E+01  0.14690E+02      982.00
  0.22655E+00  0.62347E+02    0.12500E+00  0.12500E+00 -0.25000E+00  0.00000E+00  0.00000E+00  0.00000E+00    0.17094E+02  0.20690E+02 -0.37784E+02 -0.12893E+01  0.16674E+01  0.14742E+02      982.00
  0.24927E+00  0.62576E+02    0.13750E+00  0.13750E+00 -0.27500E+00  0.00000E+00  0.00000E+00  0.00000E+00    0.17109E+02  0.20807E+02 -0.37915E+02 -0.12698E+01  0.15694E+01  0.14818E+02      982.00
  0.27200E+00  0.62832E+02    0.15000E+00  0.15000E+00 -0.30000E+00  0.00000E+00  0.00000E+00  0.00000E+00    0.17138E+02  0.20917E+02 -0.38054E+02 -0.12436E+01  0.14764E+01  0.14918E+02      982.00
  0.29471E+00  0.63083E+02    0.16250E+00  0.16250E+00 -0.32500E+00  0.00000E+00  0.00000E+00  0.00000E+00    0.17183E+02  0.21011E+02 -0.38194E+02 -0.12209E+01  0.14009E+01  0.15010E+02      982.00
  0.31741E+00  0.63335E+02    0.17500E+00  0.17500E+00 -0.35000E+00  0.00000E+00  0.00000E+00  0.00000E+00    0.17236E+02  0.21096E+02 -0.38332E+02 -0.11983E+01  0.13339E+01  0.15105E+02      982.00
  0.34011E+00  0.63583E+02    0.18750E+00  0.18750E+00 -0.37500E+00  0.00000E+00  0.00000E+00  0.00000E+00    0.17293E+02  0.21174E+02 -0.38467E+02 -0.11763E+01  0.12746E+01  0.15199E+02      982.00
  0.36280E+00  0.63824E+02    0.20000E+00  0.20000E+00 -0.40000E+00  0.00000E+00  0.00000E+00  0.00000E+00    0.17354E+02  0.21245E+02 -0.38599E+02 -0.11551E+01  0.12218E+01  0.15291E+02      982.00
  0.38547E+00  0.64058E+02    0.21250E+00  0.21250E+00 -0.42500E+00  0.00000E+00  0.00000E+00  0.00000E+00    0.17416E+02  0.21311E+02 -0.38727E+02 -0.11345E+01  0.11743E+01  0.15378E+02      982.00
  0.40815E+00  0.64281E+02    0.22500E+00  0.22500E+00 -0.45000E+00  0.00000E+00  0.00000E+00  0.00000E+00    0.17478E+02  0.21373E+02 -0.38851E+02 -0.11145E+01  0.11311E+01  0.15459E+02      982.00
  0.43081E+00  0.64514E+02    0.23750E+00  0.23750E+00 -0.47500E+00  0.00000E+00  0.00000E+00  0.00000E+00    0.17545E+02  0.21432E+02 -0.38977E+02 -0.10899E+01  0.10829E+01  0.15550E+02      982.00
  0.45347E+00  0.64714E+02    0.25000E+00  0.25000E+00 -0.50000E+00  0.00000E+00  0.00000E+00  0.00000E+00    0.17606E+02  0.21486E+02 -0.39091E+02 -0.10712E+01  0.10459E+01  0.15616E+02      982.00
  0.47612E+00  0.64902E+02    0.26250E+00  0.26250E+00 -0.52500E+00  0.00000E+00  0.00000E+00  0.00000E+00    0.17663E+02  0.21539E+02 -0.39201E+02 -0.10529E+01  0.10112E+01  0.15674E+02      982.00
  0.49877E+00  0.65081E+02    0.27500E+00  0.27500E+00 -0.55000E+00  0.00000E+00  0.00000E+00  0.00000E+00    0.17717E+02  0.21590E+02 -0.39307E+02 -0.10350E+01  0.97844E+00  0.15724E+02      982.00
  0.52142E+00  0.65249E+02    0.28750E+00  0.28750E+00 -0.57500E+00  0.00000E+00  0.00000E+00  0.00000E+00    0.17768E+02  0.21641E+02 -0.39410E+02 -0.10178E+01  0.94749E+00  0.15768E+02      982.00
  0.54407E+00  0.65407E+02    0.30000E+00  0.30000E+00 -0.60000E+00  0.00000E+00  0.00000E+00  0.00000E+00    0.17817E+02  0.21691E+02 -0.39508E+02 -0.10018E+01  0.91871E+00  0.15804E+02      982.00
  0.56672E+00  0.65554E+02    0.31250E+00  0.31250E+00 -0.62500E+00  0.00000E+00  0.00000E+00  0.00000E+00    0.17862E+02  0.21736E+02 -0.39598E+02 -0.98649E+00  0.88924E+00  0.15841E+02      982.00
  0.58937E+00  0.65694E+02    0.32500E+00  0.32500E+00 -0.65000E+00  0.00000E+00  0.00000E+00  0.00000E+00    0.17905E+02  0.21786E+02 -0.39691E+02 -0.97568E+00  0.86721E+00  0.15862E+02      982.00
  0.61203E+00  0.65864E+02    0.33750E+00  0.33750E+00 -0.67500E+00  0.00000E+00  0.00000E+00  0.00000E+00    0.17957E+02  0.21847E+02 -0.39804E+02 -0.96418E+00  0.84121E+00  0.15885E+02      982.00
  0.63469E+00  0.65983E+02    0.35000E+00  0.35000E+00 -0.70000E+00  0.00000E+00  0.00000E+00  0.00000E+00    0.17992E+02  0.21899E+02 -0.39890E+02 -0.96555E+00  0.83350E+00  0.15887E+02      982.00
  0.65736E+00  0.66127E+02    0.36250E+00  0.36250E+00 -0.72500E+00  0.00000E+00  0.00000E+00  0.00000E+00    0.18033E+02  0.21966E+02 -0.39999E+02 -0.97666E+00  0.83468E+00  0.15878E+02      982.00
  0.68004E+00  0.66199E+02    0.37500E+00  0.37500E+00 -0.75000E+00  0.00000E+00  0.00000E+00  0.00000E+00    0.18051E+02  0.22009E+02 -0.40060E+02 -0.10014E+01  0.85679E+00  0.15859E+02      982.00
  0.70274E+00  0.66277E+02    0.38750E+00  0.38750E+00 -0.77500E+00  0.00000E+00  0.00000E+00  0.00000E+00    0.18073E+02  0.22052E+02 -0.40126E+02 -0.10292E+01  0.88411E+00  0.15838E+02      982.00
  0.72544E+00  0.66375E+02    0.40000E+00  0.40000E+00 -0.80000E+00  0.00000E+00  0.00000E+00  0.00000E+00    0.18106E+02  0.22102E+02 -0.40208E+02 -0.10649E+01  0.91804E+00  0.15813E+02      982.00
  0.74816E+00  0.66486E+02    0.41250E+00  0.41250E+00 -0.82500E+00  0.00000E+00  0.00000E+00  0.00000E+00    0.18145E+02  0.22160E+02 -0.40305E+02 -0.11148E+01  0.96642E+00  0.15777E+02      982.00
  0.77089E+00  0.66597E+02    0.42500E+00  0.42500E+00 -0.85000E+00  0.00000E+00  0.00000E+00  0.00000E+00    0.18185E+02  0.22220E+02 -0.40406E+02 -0.11820E+01  0.10336E+01  0.15729E+02      982.00
  0.79364E+00  0.66691E+02    0.43750E+00  0.43750E+00 -0.87500E+00  0.00000E+00  0.00000E+00  0.00000E+00    0.18219E+02  0.22278E+02 -0.40498E+02 -0.12696E+01  0.11237E+01  0.15669E+02      982.00
  0.81641E+00  0.66786E+02    0.45000E+00  0.45000E+00 -0.90000E+00  0.00000E+00  0.00000E+00  0.00000E+00    0.18259E+02  0.22338E+02 -0.40597E+02 -0.13704E+01  0.12284E+01  0.15595E+02      982.00
  0.83921E+00  0.66881E+02    0.46250E+00  0.46250E+00 -0.92500E+00  0.00000E+00  0.00000E+00  0.00000E+00    0.18300E+02  0.22400E+02 -0.40700E+02 -0.14913E+01  0.13551E+01  0.15503E+02      982.00
  0.86203E+00  0.66977E+02    0.47500E+00  0.47500E+00 -0.95000E+00  0.00000E+00  0.00000E+00  0.00000E+00    0.18347E+02  0.22462E+02 -0.40808E+02 -0.16172E+01  0.14875E+01  0.15403E+02      982.00
  0.88488E+00  0.67077E+02    0.48750E+00  0.48750E+00 -0.97500E+00  0.00000E+00  0.00000E+00  0.00000E+00    0.18399E+02  0.22523E+02 -0.40922E+02 -0.17460E+01  0.16229E+01  0.15293E+02      982.00
  0.90776E+00  0.67180E+02    0.50000E+00  0.50000E+00 -0.10000E+01  0.00000E+00  0.00000E+00  0.00000E+00    0.18456E+02  0.22585E+02 -0.41041E+02 -0.18815E+01  0.17653E+01  0.15171E+02      982.00
