          Evm          Svm            E11          E22          E33          E23          E13          E12         SDEV11       SDEV22       SDEV33       SDEV23       SDEV13       SDEV12      TEMP
  0.00000E+00  0.63072E+02    0.00000E+00  0.00000E+00  0.00000E+00  0.00000E+00  0.00000E+00  0.00000E+00    0.20949E+02  0.18922E+02 -0.39871E+02 -0.32269E+01  0.26729E+01  0.10731E+02      982.00
  0.23706E-01  0.63072E+02    0.12500E-01  0.12500E-01 -0.25000E-01  0.00000E+00  0.00000E+00  0.00000E+00    0.21176E+02  0.18746E+02 -0.39922E+02 -0.30317E+01  0.27308E+01  0.10609E+02      982.00
  0.47442E-01  0.63100E+02    0.25000E-01  0.25000E-01 -0.50000E-01  0.00000E+00  0.00000E+00  0.00000E+00    0.21362E+02  0.18615E+02 -0.39977E+02 -0.28566E+01  0.27652E+01  0.10531E+02      982.00
  0.71200E-01  0.63158E+02    0.37500E-01  0.37500E-01 -0.75000E-01  0.00000E+00  0.00000E+00  0.00000E+00    0.21530E+02  0.18511E+02 -0.40041E+02 -0.27098E+01  0.27771E+01  0.10482E+02      982.00
  0.94974E-01  0.63257E+02    0.50000E-01  0.50000E-01 -0.10000E+00  0.00000E+00  0.00000E+00  0.00000E+00    0.21696E+02  0.18423E+02 -0.40119E+02 -0.25884E+01  0.27719E+01  0.10469E+02      982.00
  0.11876E+00  0.63379E+02    0.62500E-01  0.62500E-01 -0.12500E+00  0.00000E+00  0.00000E+00  0.00000E+00    0.21848E+02  0.18355E+02 -0.40204E+02 -0.24903E+01  0.27542E+01  0.10482E+02      982.00
  0.14255E+00  0.63539E+02    0.75000E-01  0.75000E-01 -0.15000E+00  0.00000E+00  0.00000E+00  0.00000E+00    0.22003E+02  0.18303E+02 -0.40306E+02 -0.24127E+01  0.27262E+01  0.10519E+02      982.00
  0.16633E+00  0.63735E+02    0.87500E-01  0.87500E-01 -0.17500E+00  0.00000E+00  0.00000E+00  0.00000E+00    0.22144E+02  0.18280E+02 -0.40425E+02 -0.23545E+01  0.26965E+01  0.10577E+02      982.00
  0.19012E+00  0.63953E+02    0.10000E+00  0.10000E+00 -0.20000E+00  0.00000E+00  0.00000E+00  0.00000E+00    0.22278E+02  0.18276E+02 -0.40554E+02 -0.23124E+01  0.26673E+01  0.10649E+02      982.00
  0.21390E+00  0.64186E+02    0.11250E+00  0.11250E+00 -0.22500E+00  0.00000E+00  0.00000E+00  0.00000E+00    0.22409E+02  0.18278E+02 -0.40687E+02 -0.22814E+01  0.26324E+01  0.10739E+02      982.00
  0.23767E+00  0.64445E+02    0.12500E+00  0.12500E+00 -0.25000E+00  0.00000E+00  0.00000E+00  0.00000E+00    0.22530E+02  0.18306E+02 -0.40835E+02 -0.22641E+01  0.26049E+01  0.10834E+02      982.00
  0.26143E+00  0.64715E+02    0.13750E+00  0.13750E+00 -0.27500E+00  0.00000E+00  0.00000E+00  0.00000E+00    0.22643E+02  0.18347E+02 -0.40991E+02 -0.22574E+01  0.25806E+01  0.10930E+02      982.00
  0.28518E+00  0.64991E+02    0.15000E+00  0.15000E+00 -0.30000E+00  0.00000E+00  0.00000E+00  0.00000E+00    0.22754E+02  0.18392E+02 -0.41146E+02 -0.22564E+01  0.25527E+01  0.11040E+02      982.00
  0.30892E+00  0.65267E+02    0.16250E+00  0.16250E+00 -0.32500E+00  0.00000E+00  0.00000E+00  0.00000E+00    0.22852E+02  0.18452E+02 -0.41304E+02 -0.22640E+01  0.25332E+01  0.11137E+02      982.00
  0.33266E+00  0.65543E+02    0.17500E+00  0.17500E+00 -0.35000E+00  0.00000E+00  0.00000E+00  0.00000E+00    0.22943E+02  0.18520E+02 -0.41463E+02 -0.22762E+01  0.25149E+01  0.11233E+02      982.00
  0.35638E+00  0.65832E+02    0.18750E+00  0.18750E+00 -0.37500E+00  0.00000E+00  0.00000E+00  0.00000E+00    0.23034E+02  0.18593E+02 -0.41627E+02 -0.22922E+01  0.24934E+01  0.11340E+02      982.00
  0.38009E+00  0.66094E+02    0.20000E+00  0.20000E+00 -0.40000E+00  0.00000E+00  0.00000E+00  0.00000E+00    0.23108E+02  0.18673E+02 -0.41781E+02 -0.23103E+01  0.24769E+01  0.11425E+02      982.00
  0.40380E+00  0.66344E+02    0.21250E+00  0.21250E+00 -0.42500E+00  0.00000E+00  0.00000E+00  0.00000E+00    0.23174E+02  0.18753E+02 -0.41928E+02 -0.23296E+01  0.24615E+01  0.11505E+02      982.00
  0.42749E+00  0.66549E+02    0.22500E+00  0.22500E+00 -0.45000E+00  0.00000E+00  0.00000E+00  0.00000E+00    0.23222E+02  0.18826E+02 -0.42048E+02 -0.23489E+01  0.24464E+01  0.11571E+02      982.00
  0.45119E+00  0.66779E+02    0.23750E+00  0.23750E+00 -0.47500E+00  0.00000E+00  0.00000E+00  0.00000E+00    0.23276E+02  0.18909E+02 -0.42185E+02 -0.23691E+01  0.24304E+01  0.11641E+02      982.00
  0.47488E+00  0.67031E+02    0.25000E+00  0.25000E+00 -0.50000E+00  0.00000E+00  0.00000E+00  0.00000E+00    0.23333E+02  0.19001E+02 -0.42334E+02 -0.23934E+01  0.24104E+01  0.11720E+02      982.00
  0.49856E+00  0.67229E+02    0.26250E+00  0.26250E+00 -0.52500E+00  0.00000E+00  0.00000E+00  0.00000E+00    0.23371E+02  0.19082E+02 -0.42453E+02 -0.24120E+01  0.23922E+01  0.11778E+02      982.00
  0.52224E+00  0.67418E+02    0.27500E+00  0.27500E+00 -0.55000E+00  0.00000E+00  0.00000E+00  0.00000E+00    0.23406E+02  0.19162E+02 -0.42568E+02 -0.24300E+01  0.23748E+01  0.11831E+02      982.00
  0.54592E+00  0.67594E+02    0.28750E+00  0.28750E+00 -0.57500E+00  0.00000E+00  0.00000E+00  0.00000E+00    0.23436E+02  0.19240E+02 -0.42676E+02 -0.24467E+01  0.23564E+01  0.11879E+02      982.00
  0.56959E+00  0.67763E+02    0.30000E+00  0.30000E+00 -0.60000E+00  0.00000E+00  0.00000E+00  0.00000E+00    0.23464E+02  0.19316E+02 -0.42780E+02 -0.24619E+01  0.23381E+01  0.11924E+02      982.00
  0.59327E+00  0.67909E+02    0.31250E+00  0.31250E+00 -0.62500E+00  0.00000E+00  0.00000E+00  0.00000E+00    0.23484E+02  0.19386E+02 -0.42870E+02 -0.24768E+01  0.23198E+01  0.11963E+02      982.00
  0.61694E+00  0.68053E+02    0.32500E+00  0.32500E+00 -0.65000E+00  0.00000E+00  0.00000E+00  0.00000E+00    0.23504E+02  0.19456E+02 -0.42960E+02 -0.24906E+01  0.23008E+01  0.11998E+02      982.00
  0.64062E+00  0.68189E+02    0.33750E+00  0.33750E+00 -0.67500E+00  0.00000E+00  0.00000E+00  0.00000E+00    0.23521E+02  0.19524E+02 -0.43046E+02 -0.25026E+01  0.22821E+01  0.12032E+02      982.00
  0.66429E+00  0.68309E+02    0.35000E+00  0.35000E+00 -0.70000E+00  0.00000E+00  0.00000E+00  0.00000E+00    0.23533E+02  0.19588E+02 -0.43121E+02 -0.25128E+01  0.22627E+01  0.12061E+02      982.00
  0.68796E+00  0.68425E+02    0.36250E+00  0.36250E+00 -0.72500E+00  0.00000E+00  0.00000E+00  0.00000E+00    0.23545E+02  0.19650E+02 -0.43195E+02 -0.25229E+01  0.22442E+01  0.12088E+02      982.00
  0.71163E+00  0.68530E+02    0.37500E+00  0.37500E+00 -0.75000E+00  0.00000E+00  0.00000E+00  0.00000E+00    0.23553E+02  0.19709E+02 -0.43261E+02 -0.25316E+01  0.22259E+01  0.12114E+02      982.00
  0.73531E+00  0.68624E+02    0.38750E+00  0.38750E+00 -0.77500E+00  0.00000E+00  0.00000E+00  0.00000E+00    0.23558E+02  0.19764E+02 -0.43322E+02 -0.25385E+01  0.22076E+01  0.12135E+02      982.00
  0.75898E+00  0.68699E+02    0.40000E+00  0.40000E+00 -0.80000E+00  0.00000E+00  0.00000E+00  0.00000E+00    0.23558E+02  0.19810E+02 -0.43368E+02 -0.25493E+01  0.21957E+01  0.12156E+02      982.00
  0.78265E+00  0.68802E+02    0.41250E+00  0.41250E+00 -0.82500E+00  0.00000E+00  0.00000E+00  0.00000E+00    0.23560E+02  0.19874E+02 -0.43434E+02 -0.25577E+01  0.21704E+01  0.12181E+02      982.00
  0.80633E+00  0.68873E+02    0.42500E+00  0.42500E+00 -0.85000E+00  0.00000E+00  0.00000E+00  0.00000E+00    0.23567E+02  0.19913E+02 -0.43481E+02 -0.25609E+01  0.21602E+01  0.12193E+02      982.00
  0.83000E+00  0.68958E+02    0.43750E+00  0.43750E+00 -0.87500E+00  0.00000E+00  0.00000E+00  0.00000E+00    0.23564E+02  0.19971E+02 -0.43535E+02 -0.25673E+01  0.21371E+01  0.12213E+02      982.00
  0.85368E+00  0.69029E+02    0.45000E+00  0.45000E+00 -0.90000E+00  0.00000E+00  0.00000E+00  0.00000E+00    0.23565E+02  0.20017E+02 -0.43582E+02 -0.25715E+01  0.21194E+01  0.12228E+02      982.00
  0.87735E+00  0.69092E+02    0.46250E+00  0.46250E+00 -0.92500E+00  0.00000E+00  0.00000E+00  0.00000E+00    0.23564E+02  0.20059E+02 -0.43624E+02 -0.25755E+01  0.21046E+01  0.12241E+02      982.00
  0.90103E+00  0.69148E+02    0.47500E+00  0.47500E+00 -0.95000E+00  0.00000E+00  0.00000E+00  0.00000E+00    0.23562E+02  0.20098E+02 -0.43660E+02 -0.25790E+01  0.20904E+01  0.12253E+02      982.00
  0.92471E+00  0.69209E+02    0.48750E+00  0.48750E+00 -0.97500E+00  0.00000E+00  0.00000E+00  0.00000E+00    0.23562E+02  0.20138E+02 -0.43701E+02 -0.25813E+01  0.20763E+01  0.12265E+02      982.00
  0.94838E+00  0.69256E+02    0.50000E+00  0.50000E+00 -0.10000E+01  0.00000E+00  0.00000E+00  0.00000E+00    0.23558E+02  0.20173E+02 -0.43732E+02 -0.25839E+01  0.20634E+01  0.12274E+02      982.00
