          Evm          Svm            E11          E22          E33          E23          E13          E12         SDEV11       SDEV22       SDEV33       SDEV23       SDEV13       SDEV12      TEMP
  0.00000E+00  0.61004E+02    0.00000E+00  0.00000E+00  0.00000E+00  0.00000E+00  0.00000E+00  0.00000E+00    0.19596E+02  0.16585E+02 -0.36182E+02 -0.29693E+01  0.19055E+01  0.15618E+02      982.00
  0.22242E-01  0.61028E+02    0.12500E-01  0.12500E-01 -0.25000E-01  0.00000E+00  0.00000E+00  0.00000E+00    0.19544E+02  0.16603E+02 -0.36147E+02 -0.29610E+01  0.18727E+01  0.15719E+02      982.00
  0.44453E-01  0.61094E+02    0.25000E-01  0.25000E-01 -0.50000E-01  0.00000E+00  0.00000E+00  0.00000E+00    0.19510E+02  0.16628E+02 -0.36138E+02 -0.29507E+01  0.18630E+01  0.15826E+02      982.00
  0.66634E-01  0.61194E+02    0.37500E-01  0.37500E-01 -0.75000E-01  0.00000E+00  0.00000E+00  0.00000E+00    0.19494E+02  0.16658E+02 -0.36152E+02 -0.29469E+01  0.18730E+01  0.15931E+02      982.00
  0.88788E-01  0.61320E+02    0.50000E-01  0.50000E-01 -0.10000E+00  0.00000E+00  0.00000E+00  0.00000E+00    0.19510E+02  0.16681E+02 -0.36191E+02 -0.29582E+01  0.19138E+01  0.16020E+02      982.00
  0.11092E+00  0.61448E+02    0.62500E-01  0.62500E-01 -0.12500E+00  0.00000E+00  0.00000E+00  0.00000E+00    0.19561E+02  0.16681E+02 -0.36243E+02 -0.29828E+01  0.19875E+01  0.16079E+02      982.00
  0.13304E+00  0.61492E+02    0.75000E-01  0.75000E-01 -0.15000E+00  0.00000E+00  0.00000E+00  0.00000E+00    0.19614E+02  0.16653E+02 -0.36267E+02 -0.29967E+01  0.20430E+01  0.16081E+02      982.00
  0.15516E+00  0.61614E+02    0.87500E-01  0.87500E-01 -0.17500E+00  0.00000E+00  0.00000E+00  0.00000E+00    0.19699E+02  0.16638E+02 -0.36337E+02 -0.30168E+01  0.21215E+01  0.16100E+02      982.00
  0.17727E+00  0.61735E+02    0.10000E+00  0.10000E+00 -0.20000E+00  0.00000E+00  0.00000E+00  0.00000E+00    0.19797E+02  0.16605E+02 -0.36402E+02 -0.30189E+01  0.21933E+01  0.16127E+02      982.00
  0.19938E+00  0.61862E+02    0.11250E+00  0.11250E+00 -0.22500E+00  0.00000E+00  0.00000E+00  0.00000E+00    0.19902E+02  0.16564E+02 -0.36466E+02 -0.30026E+01  0.22494E+01  0.16169E+02      982.00
  0.22149E+00  0.62007E+02    0.12500E+00  0.12500E+00 -0.25000E+00  0.00000E+00  0.00000E+00  0.00000E+00    0.20007E+02  0.16522E+02 -0.36530E+02 -0.29744E+01  0.22905E+01  0.16239E+02      982.00
  0.24358E+00  0.62173E+02    0.13750E+00  0.13750E+00 -0.27500E+00  0.00000E+00  0.00000E+00  0.00000E+00    0.20109E+02  0.16484E+02 -0.36594E+02 -0.29417E+01  0.23206E+01  0.16335E+02      982.00
  0.26565E+00  0.62333E+02    0.15000E+00  0.15000E+00 -0.30000E+00  0.00000E+00  0.00000E+00  0.00000E+00    0.20205E+02  0.16438E+02 -0.36643E+02 -0.29041E+01  0.23373E+01  0.16452E+02      982.00
  0.28770E+00  0.62510E+02    0.16250E+00  0.16250E+00 -0.32500E+00  0.00000E+00  0.00000E+00  0.00000E+00    0.20288E+02  0.16400E+02 -0.36689E+02 -0.28690E+01  0.23498E+01  0.16596E+02      982.00
  0.30971E+00  0.62690E+02    0.17500E+00  0.17500E+00 -0.35000E+00  0.00000E+00  0.00000E+00  0.00000E+00    0.20360E+02  0.16366E+02 -0.36726E+02 -0.28385E+01  0.23598E+01  0.16757E+02      982.00
  0.33168E+00  0.62858E+02    0.18750E+00  0.18750E+00 -0.37500E+00  0.00000E+00  0.00000E+00  0.00000E+00    0.20422E+02  0.16326E+02 -0.36748E+02 -0.28071E+01  0.23613E+01  0.16928E+02      982.00
  0.35360E+00  0.63028E+02    0.20000E+00  0.20000E+00 -0.40000E+00  0.00000E+00  0.00000E+00  0.00000E+00    0.20470E+02  0.16294E+02 -0.36763E+02 -0.27825E+01  0.23656E+01  0.17112E+02      982.00
  0.37547E+00  0.63194E+02    0.21250E+00  0.21250E+00 -0.42500E+00  0.00000E+00  0.00000E+00  0.00000E+00    0.20509E+02  0.16260E+02 -0.36769E+02 -0.27513E+01  0.23585E+01  0.17307E+02      982.00
  0.39729E+00  0.63366E+02    0.22500E+00  0.22500E+00 -0.45000E+00  0.00000E+00  0.00000E+00  0.00000E+00    0.20537E+02  0.16229E+02 -0.36765E+02 -0.27211E+01  0.23511E+01  0.17524E+02      982.00
  0.41905E+00  0.63504E+02    0.23750E+00  0.23750E+00 -0.47500E+00  0.00000E+00  0.00000E+00  0.00000E+00    0.20547E+02  0.16195E+02 -0.36742E+02 -0.26894E+01  0.23389E+01  0.17729E+02      982.00
  0.44075E+00  0.63629E+02    0.25000E+00  0.25000E+00 -0.50000E+00  0.00000E+00  0.00000E+00  0.00000E+00    0.20545E+02  0.16160E+02 -0.36705E+02 -0.26497E+01  0.23172E+01  0.17941E+02      982.00
  0.46238E+00  0.63728E+02    0.26250E+00  0.26250E+00 -0.52500E+00  0.00000E+00  0.00000E+00  0.00000E+00    0.20532E+02  0.16121E+02 -0.36652E+02 -0.26093E+01  0.22934E+01  0.18147E+02      982.00
  0.48395E+00  0.63831E+02    0.27500E+00  0.27500E+00 -0.55000E+00  0.00000E+00  0.00000E+00  0.00000E+00    0.20510E+02  0.16082E+02 -0.36592E+02 -0.25442E+01  0.22446E+01  0.18371E+02      982.00
  0.50544E+00  0.63924E+02    0.28750E+00  0.28750E+00 -0.57500E+00  0.00000E+00  0.00000E+00  0.00000E+00    0.20479E+02  0.16043E+02 -0.36522E+02 -0.24599E+01  0.21765E+01  0.18601E+02      982.00
  0.52687E+00  0.64005E+02    0.30000E+00  0.30000E+00 -0.60000E+00  0.00000E+00  0.00000E+00  0.00000E+00    0.20443E+02  0.16001E+02 -0.36443E+02 -0.23632E+01  0.20962E+01  0.18830E+02      982.00
  0.54822E+00  0.64083E+02    0.31250E+00  0.31250E+00 -0.62500E+00  0.00000E+00  0.00000E+00  0.00000E+00    0.20396E+02  0.15964E+02 -0.36360E+02 -0.22312E+01  0.19817E+01  0.19066E+02      982.00
  0.56950E+00  0.64155E+02    0.32500E+00  0.32500E+00 -0.65000E+00  0.00000E+00  0.00000E+00  0.00000E+00    0.20348E+02  0.15927E+02 -0.36275E+02 -0.20794E+01  0.18483E+01  0.19299E+02      982.00
  0.59070E+00  0.64225E+02    0.33750E+00  0.33750E+00 -0.67500E+00  0.00000E+00  0.00000E+00  0.00000E+00    0.20294E+02  0.15897E+02 -0.36191E+02 -0.18938E+01  0.16826E+01  0.19528E+02      982.00
  0.61183E+00  0.64292E+02    0.35000E+00  0.35000E+00 -0.70000E+00  0.00000E+00  0.00000E+00  0.00000E+00    0.20238E+02  0.15872E+02 -0.36111E+02 -0.16803E+01  0.14907E+01  0.19749E+02      982.00
  0.63289E+00  0.64361E+02    0.36250E+00  0.36250E+00 -0.72500E+00  0.00000E+00  0.00000E+00  0.00000E+00    0.20180E+02  0.15857E+02 -0.36037E+02 -0.14352E+01  0.12690E+01  0.19961E+02      982.00
  0.65389E+00  0.64433E+02    0.37500E+00  0.37500E+00 -0.75000E+00  0.00000E+00  0.00000E+00  0.00000E+00    0.20124E+02  0.15850E+02 -0.35974E+02 -0.11657E+01  0.10248E+01  0.20157E+02      982.00
  0.67483E+00  0.64514E+02    0.38750E+00  0.38750E+00 -0.77500E+00  0.00000E+00  0.00000E+00  0.00000E+00    0.20071E+02  0.15856E+02 -0.35927E+02 -0.86936E+00  0.75551E+00  0.20335E+02      982.00
  0.69571E+00  0.64597E+02    0.40000E+00  0.40000E+00 -0.80000E+00  0.00000E+00  0.00000E+00  0.00000E+00    0.20024E+02  0.15871E+02 -0.35896E+02 -0.56310E+00  0.47739E+00  0.20486E+02      982.00
  0.71655E+00  0.64689E+02    0.41250E+00  0.41250E+00 -0.82500E+00  0.00000E+00  0.00000E+00  0.00000E+00    0.19984E+02  0.15900E+02 -0.35884E+02 -0.24260E+00  0.18639E+00  0.20613E+02      982.00
  0.73735E+00  0.64784E+02    0.42500E+00  0.42500E+00 -0.85000E+00  0.00000E+00  0.00000E+00  0.00000E+00    0.19953E+02  0.15938E+02 -0.35891E+02  0.75180E-01 -0.10154E+00  0.20708E+02      982.00
  0.75813E+00  0.64887E+02    0.43750E+00  0.43750E+00 -0.87500E+00  0.00000E+00  0.00000E+00  0.00000E+00    0.19930E+02  0.15989E+02 -0.35918E+02  0.39517E+00 -0.39093E+00  0.20776E+02      982.00
  0.77888E+00  0.64995E+02    0.45000E+00  0.45000E+00 -0.90000E+00  0.00000E+00  0.00000E+00  0.00000E+00    0.19916E+02  0.16050E+02 -0.35965E+02  0.70779E+00 -0.67282E+00  0.20816E+02      982.00
  0.79964E+00  0.65106E+02    0.46250E+00  0.46250E+00 -0.92500E+00  0.00000E+00  0.00000E+00  0.00000E+00    0.19911E+02  0.16120E+02 -0.36031E+02  0.10095E+01 -0.94385E+00  0.20827E+02      982.00
  0.82039E+00  0.65220E+02    0.47500E+00  0.47500E+00 -0.95000E+00  0.00000E+00  0.00000E+00  0.00000E+00    0.19914E+02  0.16199E+02 -0.36114E+02  0.12976E+01 -0.12017E+01  0.20812E+02      982.00
  0.84115E+00  0.65335E+02    0.48750E+00  0.48750E+00 -0.97500E+00  0.00000E+00  0.00000E+00  0.00000E+00    0.19926E+02  0.16286E+02 -0.36212E+02  0.15705E+01 -0.14447E+01  0.20773E+02      982.00
  0.86194E+00  0.65451E+02    0.50000E+00  0.50000E+00 -0.10000E+01  0.00000E+00  0.00000E+00  0.00000E+00    0.19946E+02  0.16380E+02 -0.36325E+02  0.18274E+01 -0.16723E+01  0.20712E+02      982.00
