          Evm          Svm            E11          E22          E33          E23          E13          E12         SDEV11       SDEV22       SDEV33       SDEV23       SDEV13       SDEV12      TEMP
  0.00000E+00  0.61340E+02    0.00000E+00  0.00000E+00  0.00000E+00  0.00000E+00  0.00000E+00  0.00000E+00    0.18914E+02  0.17840E+02 -0.36754E+02 -0.21517E+01  0.16854E+01  0.15274E+02      982.00
  0.22469E-01  0.61361E+02    0.12500E-01  0.12500E-01 -0.25000E-01  0.00000E+00  0.00000E+00  0.00000E+00    0.18889E+02  0.17864E+02 -0.36753E+02 -0.21246E+01  0.16606E+01  0.15311E+02      982.00
  0.44931E-01  0.61387E+02    0.25000E-01  0.25000E-01 -0.50000E-01  0.00000E+00  0.00000E+00  0.00000E+00    0.18881E+02  0.17884E+02 -0.36765E+02 -0.21015E+01  0.16508E+01  0.15329E+02      982.00
  0.67390E-01  0.61455E+02    0.37500E-01  0.37500E-01 -0.75000E-01  0.00000E+00  0.00000E+00  0.00000E+00    0.18897E+02  0.17917E+02 -0.36814E+02 -0.20871E+01  0.16610E+01  0.15332E+02      982.00
  0.89854E-01  0.61498E+02    0.50000E-01  0.50000E-01 -0.10000E+00  0.00000E+00  0.00000E+00  0.00000E+00    0.18929E+02  0.17935E+02 -0.36864E+02 -0.20878E+01  0.16880E+01  0.15297E+02      982.00
  0.11233E+00  0.61582E+02    0.62500E-01  0.62500E-01 -0.12500E+00  0.00000E+00  0.00000E+00  0.00000E+00    0.18990E+02  0.17962E+02 -0.36952E+02 -0.20857E+01  0.17171E+01  0.15246E+02      982.00
  0.13483E+00  0.61678E+02    0.75000E-01  0.75000E-01 -0.15000E+00  0.00000E+00  0.00000E+00  0.00000E+00    0.19062E+02  0.17982E+02 -0.37044E+02 -0.20661E+01  0.17294E+01  0.15210E+02      982.00
  0.15736E+00  0.61782E+02    0.87500E-01  0.87500E-01 -0.17500E+00  0.00000E+00  0.00000E+00  0.00000E+00    0.19129E+02  0.18001E+02 -0.37131E+02 -0.20330E+01  0.17207E+01  0.15196E+02      982.00
  0.17989E+00  0.61926E+02    0.10000E+00  0.10000E+00 -0.20000E+00  0.00000E+00  0.00000E+00  0.00000E+00    0.19204E+02  0.18034E+02 -0.37238E+02 -0.19955E+01  0.17073E+01  0.15199E+02      982.00
  0.20244E+00  0.62110E+02    0.11250E+00  0.11250E+00 -0.22500E+00  0.00000E+00  0.00000E+00  0.00000E+00    0.19287E+02  0.18071E+02 -0.37359E+02 -0.19473E+01  0.16850E+01  0.15235E+02      982.00
  0.22500E+00  0.62313E+02    0.12500E+00  0.12500E+00 -0.25000E+00  0.00000E+00  0.00000E+00  0.00000E+00    0.19371E+02  0.18111E+02 -0.37482E+02 -0.18976E+01  0.16582E+01  0.15293E+02      982.00
  0.24756E+00  0.62535E+02    0.13750E+00  0.13750E+00 -0.27500E+00  0.00000E+00  0.00000E+00  0.00000E+00    0.19455E+02  0.18155E+02 -0.37610E+02 -0.18508E+01  0.16307E+01  0.15367E+02      982.00
  0.27011E+00  0.62763E+02    0.15000E+00  0.15000E+00 -0.30000E+00  0.00000E+00  0.00000E+00  0.00000E+00    0.19536E+02  0.18201E+02 -0.37737E+02 -0.18091E+01  0.16052E+01  0.15451E+02      982.00
  0.29266E+00  0.63000E+02    0.16250E+00  0.16250E+00 -0.32500E+00  0.00000E+00  0.00000E+00  0.00000E+00    0.19615E+02  0.18250E+02 -0.37864E+02 -0.17729E+01  0.15822E+01  0.15544E+02      982.00
  0.31520E+00  0.63234E+02    0.17500E+00  0.17500E+00 -0.35000E+00  0.00000E+00  0.00000E+00  0.00000E+00    0.19689E+02  0.18298E+02 -0.37987E+02 -0.17428E+01  0.15632E+01  0.15640E+02      982.00
  0.33772E+00  0.63457E+02    0.18750E+00  0.18750E+00 -0.37500E+00  0.00000E+00  0.00000E+00  0.00000E+00    0.19757E+02  0.18345E+02 -0.38102E+02 -0.17181E+01  0.15479E+01  0.15736E+02      982.00
  0.36024E+00  0.63710E+02    0.20000E+00  0.20000E+00 -0.40000E+00  0.00000E+00  0.00000E+00  0.00000E+00    0.19830E+02  0.18398E+02 -0.38228E+02 -0.16931E+01  0.15306E+01  0.15850E+02      982.00
  0.38274E+00  0.63880E+02    0.21250E+00  0.21250E+00 -0.42500E+00  0.00000E+00  0.00000E+00  0.00000E+00    0.19881E+02  0.18433E+02 -0.38315E+02 -0.16828E+01  0.15254E+01  0.15923E+02      982.00
  0.40523E+00  0.64083E+02    0.22500E+00  0.22500E+00 -0.45000E+00  0.00000E+00  0.00000E+00  0.00000E+00    0.19939E+02  0.18480E+02 -0.38418E+02 -0.16728E+01  0.15207E+01  0.16008E+02      982.00
  0.42772E+00  0.64312E+02    0.23750E+00  0.23750E+00 -0.47500E+00  0.00000E+00  0.00000E+00  0.00000E+00    0.20002E+02  0.18530E+02 -0.38532E+02 -0.16613E+01  0.15138E+01  0.16110E+02      982.00
  0.45018E+00  0.64489E+02    0.25000E+00  0.25000E+00 -0.50000E+00  0.00000E+00  0.00000E+00  0.00000E+00    0.20053E+02  0.18572E+02 -0.38625E+02 -0.16569E+01  0.15131E+01  0.16179E+02      982.00
  0.47264E+00  0.64646E+02    0.26250E+00  0.26250E+00 -0.52500E+00  0.00000E+00  0.00000E+00  0.00000E+00    0.20097E+02  0.18610E+02 -0.38706E+02 -0.16546E+01  0.15138E+01  0.16243E+02      982.00
  0.49510E+00  0.64805E+02    0.27500E+00  0.27500E+00 -0.55000E+00  0.00000E+00  0.00000E+00  0.00000E+00    0.20141E+02  0.18649E+02 -0.38790E+02 -0.16524E+01  0.15144E+01  0.16303E+02      982.00
  0.51754E+00  0.64953E+02    0.28750E+00  0.28750E+00 -0.57500E+00  0.00000E+00  0.00000E+00  0.00000E+00    0.20181E+02  0.18683E+02 -0.38863E+02 -0.16497E+01  0.15137E+01  0.16369E+02      982.00
  0.53998E+00  0.65123E+02    0.30000E+00  0.30000E+00 -0.60000E+00  0.00000E+00  0.00000E+00  0.00000E+00    0.20230E+02  0.18727E+02 -0.38957E+02 -0.16460E+01  0.15126E+01  0.16428E+02      982.00
  0.56241E+00  0.65205E+02    0.31250E+00  0.31250E+00 -0.62500E+00  0.00000E+00  0.00000E+00  0.00000E+00    0.20252E+02  0.18747E+02 -0.39000E+02 -0.16471E+01  0.15149E+01  0.16460E+02      982.00
  0.58484E+00  0.65354E+02    0.32500E+00  0.32500E+00 -0.65000E+00  0.00000E+00  0.00000E+00  0.00000E+00    0.20296E+02  0.18788E+02 -0.39084E+02 -0.16436E+01  0.15128E+01  0.16507E+02      982.00
  0.60727E+00  0.65435E+02    0.33750E+00  0.33750E+00 -0.67500E+00  0.00000E+00  0.00000E+00  0.00000E+00    0.20319E+02  0.18808E+02 -0.39127E+02 -0.16452E+01  0.15150E+01  0.16538E+02      982.00
  0.62969E+00  0.65584E+02    0.35000E+00  0.35000E+00 -0.70000E+00  0.00000E+00  0.00000E+00  0.00000E+00    0.20362E+02  0.18850E+02 -0.39212E+02 -0.16351E+01  0.15065E+01  0.16585E+02      982.00
  0.65211E+00  0.65682E+02    0.36250E+00  0.36250E+00 -0.72500E+00  0.00000E+00  0.00000E+00  0.00000E+00    0.20391E+02  0.18878E+02 -0.39268E+02 -0.16288E+01  0.15012E+01  0.16614E+02      982.00
  0.67453E+00  0.65766E+02    0.37500E+00  0.37500E+00 -0.75000E+00  0.00000E+00  0.00000E+00  0.00000E+00    0.20416E+02  0.18903E+02 -0.39319E+02 -0.16215E+01  0.14951E+01  0.16637E+02      982.00
  0.69695E+00  0.65845E+02    0.38750E+00  0.38750E+00 -0.77500E+00  0.00000E+00  0.00000E+00  0.00000E+00    0.20440E+02  0.18927E+02 -0.39367E+02 -0.16136E+01  0.14878E+01  0.16658E+02      982.00
  0.71937E+00  0.65921E+02    0.40000E+00  0.40000E+00 -0.80000E+00  0.00000E+00  0.00000E+00  0.00000E+00    0.20463E+02  0.18951E+02 -0.39415E+02 -0.16028E+01  0.14775E+01  0.16676E+02      982.00
  0.74179E+00  0.65983E+02    0.41250E+00  0.41250E+00 -0.82500E+00  0.00000E+00  0.00000E+00  0.00000E+00    0.20483E+02  0.18971E+02 -0.39454E+02 -0.15974E+01  0.14723E+01  0.16688E+02      982.00
  0.76422E+00  0.66052E+02    0.42500E+00  0.42500E+00 -0.85000E+00  0.00000E+00  0.00000E+00  0.00000E+00    0.20506E+02  0.18994E+02 -0.39500E+02 -0.15868E+01  0.14620E+01  0.16700E+02      982.00
  0.78664E+00  0.66118E+02    0.43750E+00  0.43750E+00 -0.87500E+00  0.00000E+00  0.00000E+00  0.00000E+00    0.20528E+02  0.19016E+02 -0.39544E+02 -0.15727E+01  0.14482E+01  0.16712E+02      982.00
  0.80907E+00  0.66180E+02    0.45000E+00  0.45000E+00 -0.90000E+00  0.00000E+00  0.00000E+00  0.00000E+00    0.20548E+02  0.19038E+02 -0.39586E+02 -0.15564E+01  0.14322E+01  0.16722E+02      982.00
  0.83150E+00  0.66240E+02    0.46250E+00  0.46250E+00 -0.92500E+00  0.00000E+00  0.00000E+00  0.00000E+00    0.20569E+02  0.19060E+02 -0.39629E+02 -0.15481E+01  0.14241E+01  0.16725E+02      982.00
  0.85393E+00  0.66298E+02    0.47500E+00  0.47500E+00 -0.95000E+00  0.00000E+00  0.00000E+00  0.00000E+00    0.20590E+02  0.19081E+02 -0.39671E+02 -0.15304E+01  0.14064E+01  0.16731E+02      982.00
  0.87637E+00  0.66359E+02    0.48750E+00  0.48750E+00 -0.97500E+00  0.00000E+00  0.00000E+00  0.00000E+00    0.20612E+02  0.19105E+02 -0.39716E+02 -0.15096E+01  0.13855E+01  0.16734E+02      982.00
  0.89882E+00  0.66415E+02    0.50000E+00  0.50000E+00 -0.10000E+01  0.00000E+00  0.00000E+00  0.00000E+00    0.20632E+02  0.19127E+02 -0.39759E+02 -0.14867E+01  0.13624E+01  0.16735E+02      982.00
