          Evm          Svm            E11          E22          E33          E23          E13          E12         SDEV11       SDEV22       SDEV33       SDEV23       SDEV13       SDEV12      TEMP
  0.00000E+00  0.62376E+02    0.00000E+00  0.00000E+00  0.00000E+00  0.00000E+00  0.00000E+00  0.00000E+00    0.18846E+02  0.21667E+02 -0.40514E+02  0.17573E+01 -0.40329E+01  0.66766E+01      982.00
  0.24356E-01  0.62476E+02    0.12500E-01  0.12500E-01 -0.25000E-01  0.00000E+00  0.00000E+00  0.00000E+00    0.18092E+02  0.22456E+02 -0.40547E+02  0.16618E+01 -0.37769E+01  0.67991E+01      982.00
  0.48694E-01  0.62551E+02    0.25000E-01  0.25000E-01 -0.50000E-01  0.00000E+00  0.00000E+00  0.00000E+00    0.17517E+02  0.23047E+02 -0.40564E+02  0.17096E+01 -0.35095E+01  0.68706E+01      982.00
  0.73013E-01  0.62630E+02    0.37500E-01  0.37500E-01 -0.75000E-01  0.00000E+00  0.00000E+00  0.00000E+00    0.17059E+02  0.23521E+02 -0.40581E+02  0.18149E+01 -0.32649E+01  0.69282E+01      982.00
  0.97311E-01  0.62730E+02    0.50000E-01  0.50000E-01 -0.10000E+00  0.00000E+00  0.00000E+00  0.00000E+00    0.16686E+02  0.23920E+02 -0.40606E+02  0.19379E+01 -0.30550E+01  0.69907E+01      982.00
  0.12159E+00  0.62861E+02    0.62500E-01  0.62500E-01 -0.12500E+00  0.00000E+00  0.00000E+00  0.00000E+00    0.16377E+02  0.24269E+02 -0.40647E+02  0.20616E+01 -0.28810E+01  0.70664E+01      982.00
  0.14583E+00  0.63029E+02    0.75000E-01  0.75000E-01 -0.15000E+00  0.00000E+00  0.00000E+00  0.00000E+00    0.16130E+02  0.24577E+02 -0.40708E+02  0.21825E+01 -0.27387E+01  0.71618E+01      982.00
  0.17005E+00  0.63230E+02    0.87500E-01  0.87500E-01 -0.17500E+00  0.00000E+00  0.00000E+00  0.00000E+00    0.15918E+02  0.24868E+02 -0.40786E+02  0.22944E+01 -0.26261E+01  0.72708E+01      982.00
  0.19424E+00  0.63460E+02    0.10000E+00  0.10000E+00 -0.20000E+00  0.00000E+00  0.00000E+00  0.00000E+00    0.15741E+02  0.25140E+02 -0.40881E+02  0.23995E+01 -0.25376E+01  0.73934E+01      982.00
  0.21840E+00  0.63717E+02    0.11250E+00  0.11250E+00 -0.22500E+00  0.00000E+00  0.00000E+00  0.00000E+00    0.15602E+02  0.25390E+02 -0.40992E+02  0.25011E+01 -0.24681E+01  0.75326E+01      982.00
  0.24252E+00  0.63988E+02    0.12500E+00  0.12500E+00 -0.25000E+00  0.00000E+00  0.00000E+00  0.00000E+00    0.15481E+02  0.25629E+02 -0.41110E+02  0.25960E+01 -0.24163E+01  0.76772E+01      982.00
  0.26662E+00  0.64276E+02    0.13750E+00  0.13750E+00 -0.27500E+00  0.00000E+00  0.00000E+00  0.00000E+00    0.15392E+02  0.25848E+02 -0.41240E+02  0.26903E+01 -0.23783E+01  0.78340E+01      982.00
  0.29068E+00  0.64562E+02    0.15000E+00  0.15000E+00 -0.30000E+00  0.00000E+00  0.00000E+00  0.00000E+00    0.15316E+02  0.26052E+02 -0.41368E+02  0.27775E+01 -0.23521E+01  0.79911E+01      982.00
  0.31471E+00  0.64846E+02    0.16250E+00  0.16250E+00 -0.32500E+00  0.00000E+00  0.00000E+00  0.00000E+00    0.15258E+02  0.26237E+02 -0.41496E+02  0.28605E+01 -0.23353E+01  0.81535E+01      982.00
  0.33870E+00  0.65128E+02    0.17500E+00  0.17500E+00 -0.35000E+00  0.00000E+00  0.00000E+00  0.00000E+00    0.15219E+02  0.26403E+02 -0.41622E+02  0.29397E+01 -0.23265E+01  0.83217E+01      982.00
  0.36267E+00  0.65412E+02    0.18750E+00  0.18750E+00 -0.37500E+00  0.00000E+00  0.00000E+00  0.00000E+00    0.15200E+02  0.26550E+02 -0.41750E+02  0.30176E+01 -0.23257E+01  0.84993E+01      982.00
  0.38660E+00  0.65699E+02    0.20000E+00  0.20000E+00 -0.40000E+00  0.00000E+00  0.00000E+00  0.00000E+00    0.15203E+02  0.26676E+02 -0.41879E+02  0.30960E+01 -0.23330E+01  0.86897E+01      982.00
  0.41051E+00  0.65945E+02    0.21250E+00  0.21250E+00 -0.42500E+00  0.00000E+00  0.00000E+00  0.00000E+00    0.15226E+02  0.26763E+02 -0.41989E+02  0.31687E+01 -0.23525E+01  0.88582E+01      982.00
  0.43438E+00  0.66174E+02    0.22500E+00  0.22500E+00 -0.45000E+00  0.00000E+00  0.00000E+00  0.00000E+00    0.15264E+02  0.26825E+02 -0.42089E+02  0.32355E+01 -0.23793E+01  0.90262E+01      982.00
  0.45824E+00  0.66367E+02    0.23750E+00  0.23750E+00 -0.47500E+00  0.00000E+00  0.00000E+00  0.00000E+00    0.15303E+02  0.26871E+02 -0.42174E+02  0.32957E+01 -0.24177E+01  0.91685E+01      982.00
  0.48206E+00  0.66573E+02    0.25000E+00  0.25000E+00 -0.50000E+00  0.00000E+00  0.00000E+00  0.00000E+00    0.15353E+02  0.26908E+02 -0.42261E+02  0.33501E+01 -0.24600E+01  0.93363E+01      982.00
  0.50587E+00  0.66753E+02    0.26250E+00  0.26250E+00 -0.52500E+00  0.00000E+00  0.00000E+00  0.00000E+00    0.15421E+02  0.26914E+02 -0.42335E+02  0.33932E+01 -0.25050E+01  0.95019E+01      982.00
  0.52965E+00  0.66917E+02    0.27500E+00  0.27500E+00 -0.55000E+00  0.00000E+00  0.00000E+00  0.00000E+00    0.15502E+02  0.26900E+02 -0.42402E+02  0.34287E+01 -0.25553E+01  0.96656E+01      982.00
  0.55342E+00  0.67065E+02    0.28750E+00  0.28750E+00 -0.57500E+00  0.00000E+00  0.00000E+00  0.00000E+00    0.15595E+02  0.26866E+02 -0.42460E+02  0.34569E+01 -0.26102E+01  0.98265E+01      982.00
  0.57716E+00  0.67205E+02    0.30000E+00  0.30000E+00 -0.60000E+00  0.00000E+00  0.00000E+00  0.00000E+00    0.15688E+02  0.26826E+02 -0.42514E+02  0.34794E+01 -0.26703E+01  0.99843E+01      982.00
  0.60088E+00  0.67326E+02    0.31250E+00  0.31250E+00 -0.62500E+00  0.00000E+00  0.00000E+00  0.00000E+00    0.15800E+02  0.26760E+02 -0.42560E+02  0.34945E+01 -0.27312E+01  0.10137E+02      982.00
  0.62458E+00  0.67432E+02    0.32500E+00  0.32500E+00 -0.65000E+00  0.00000E+00  0.00000E+00  0.00000E+00    0.15929E+02  0.26669E+02 -0.42599E+02  0.35032E+01 -0.27928E+01  0.10286E+02      982.00
  0.64827E+00  0.67533E+02    0.33750E+00  0.33750E+00 -0.67500E+00  0.00000E+00  0.00000E+00  0.00000E+00    0.16055E+02  0.26579E+02 -0.42635E+02  0.35089E+01 -0.28564E+01  0.10429E+02      982.00
  0.67195E+00  0.67624E+02    0.35000E+00  0.35000E+00 -0.70000E+00  0.00000E+00  0.00000E+00  0.00000E+00    0.16185E+02  0.26482E+02 -0.42667E+02  0.35111E+01 -0.29198E+01  0.10566E+02      982.00
  0.69561E+00  0.67708E+02    0.36250E+00  0.36250E+00 -0.72500E+00  0.00000E+00  0.00000E+00  0.00000E+00    0.16317E+02  0.26378E+02 -0.42696E+02  0.35109E+01 -0.29823E+01  0.10697E+02      982.00
  0.71926E+00  0.67785E+02    0.37500E+00  0.37500E+00 -0.75000E+00  0.00000E+00  0.00000E+00  0.00000E+00    0.16451E+02  0.26271E+02 -0.42721E+02  0.35088E+01 -0.30432E+01  0.10821E+02      982.00
  0.74289E+00  0.67853E+02    0.38750E+00  0.38750E+00 -0.77500E+00  0.00000E+00  0.00000E+00  0.00000E+00    0.16591E+02  0.26152E+02 -0.42743E+02  0.35047E+01 -0.31027E+01  0.10939E+02      982.00
  0.76651E+00  0.67919E+02    0.40000E+00  0.40000E+00 -0.80000E+00  0.00000E+00  0.00000E+00  0.00000E+00    0.16722E+02  0.26043E+02 -0.42764E+02  0.35007E+01 -0.31597E+01  0.11050E+02      982.00
  0.79012E+00  0.67979E+02    0.41250E+00  0.41250E+00 -0.82500E+00  0.00000E+00  0.00000E+00  0.00000E+00    0.16850E+02  0.25934E+02 -0.42783E+02  0.34966E+01 -0.32143E+01  0.11154E+02      982.00
  0.81373E+00  0.68031E+02    0.42500E+00  0.42500E+00 -0.85000E+00  0.00000E+00  0.00000E+00  0.00000E+00    0.16992E+02  0.25810E+02 -0.42801E+02  0.34873E+01 -0.32688E+01  0.11247E+02      982.00
  0.83732E+00  0.68084E+02    0.43750E+00  0.43750E+00 -0.87500E+00  0.00000E+00  0.00000E+00  0.00000E+00    0.17112E+02  0.25705E+02 -0.42817E+02  0.34835E+01 -0.33192E+01  0.11338E+02      982.00
  0.86090E+00  0.68132E+02    0.45000E+00  0.45000E+00 -0.90000E+00  0.00000E+00  0.00000E+00  0.00000E+00    0.17228E+02  0.25603E+02 -0.42831E+02  0.34801E+01 -0.33669E+01  0.11423E+02      982.00
  0.88448E+00  0.68177E+02    0.46250E+00  0.46250E+00 -0.92500E+00  0.00000E+00  0.00000E+00  0.00000E+00    0.17339E+02  0.25505E+02 -0.42843E+02  0.34772E+01 -0.34123E+01  0.11502E+02      982.00
  0.90804E+00  0.68219E+02    0.47500E+00  0.47500E+00 -0.95000E+00  0.00000E+00  0.00000E+00  0.00000E+00    0.17445E+02  0.25409E+02 -0.42855E+02  0.34748E+01 -0.34555E+01  0.11576E+02      982.00
  0.93160E+00  0.68216E+02    0.48750E+00  0.48750E+00 -0.97500E+00  0.00000E+00  0.00000E+00  0.00000E+00    0.17533E+02  0.25307E+02 -0.42840E+02  0.34640E+01 -0.34855E+01  0.11637E+02      982.00
  0.95515E+00  0.68212E+02    0.50000E+00  0.50000E+00 -0.10000E+01  0.00000E+00  0.00000E+00  0.00000E+00    0.17634E+02  0.25194E+02 -0.42828E+02  0.34497E+01 -0.35194E+01  0.11692E+02      982.00
