          Evm          Svm            E11          E22          E33          E23          E13          E12         SDEV11       SDEV22       SDEV33       SDEV23       SDEV13       SDEV12      TEMP
  0.00000E+00  0.63111E+02    0.00000E+00  0.00000E+00  0.00000E+00  0.00000E+00  0.00000E+00  0.00000E+00    0.19008E+02  0.21838E+02 -0.40846E+02 -0.25071E+01  0.42563E+01  0.70682E+01      982.00
  0.24270E-01  0.63274E+02    0.12500E-01  0.12500E-01 -0.25000E-01  0.00000E+00  0.00000E+00  0.00000E+00    0.18381E+02  0.22573E+02 -0.40955E+02 -0.21903E+01  0.41257E+01  0.70974E+01      982.00
  0.48542E-01  0.63341E+02    0.25000E-01  0.25000E-01 -0.50000E-01  0.00000E+00  0.00000E+00  0.00000E+00    0.17878E+02  0.23135E+02 -0.41013E+02 -0.20529E+01  0.38734E+01  0.70501E+01      982.00
  0.72823E-01  0.63402E+02    0.37500E-01  0.37500E-01 -0.75000E-01  0.00000E+00  0.00000E+00  0.00000E+00    0.17475E+02  0.23594E+02 -0.41069E+02 -0.20513E+01  0.35749E+01  0.69734E+01      982.00
  0.97114E-01  0.63497E+02    0.50000E-01  0.50000E-01 -0.10000E+00  0.00000E+00  0.00000E+00  0.00000E+00    0.17148E+02  0.23992E+02 -0.41140E+02 -0.21235E+01  0.32842E+01  0.68956E+01      982.00
  0.12141E+00  0.63612E+02    0.62500E-01  0.62500E-01 -0.12500E+00  0.00000E+00  0.00000E+00  0.00000E+00    0.16881E+02  0.24338E+02 -0.41218E+02 -0.22229E+01  0.30249E+01  0.68265E+01      982.00
  0.14571E+00  0.63764E+02    0.75000E-01  0.75000E-01 -0.15000E+00  0.00000E+00  0.00000E+00  0.00000E+00    0.16674E+02  0.24640E+02 -0.41314E+02 -0.23280E+01  0.28047E+01  0.67850E+01      982.00
  0.17001E+00  0.63951E+02    0.87500E-01  0.87500E-01 -0.17500E+00  0.00000E+00  0.00000E+00  0.00000E+00    0.16500E+02  0.24925E+02 -0.41425E+02 -0.24274E+01  0.26244E+01  0.67623E+01      982.00
  0.19430E+00  0.64180E+02    0.10000E+00  0.10000E+00 -0.20000E+00  0.00000E+00  0.00000E+00  0.00000E+00    0.16372E+02  0.25185E+02 -0.41557E+02 -0.25208E+01  0.24795E+01  0.67721E+01      982.00
  0.21858E+00  0.64432E+02    0.11250E+00  0.11250E+00 -0.22500E+00  0.00000E+00  0.00000E+00  0.00000E+00    0.16264E+02  0.25436E+02 -0.41700E+02 -0.26049E+01  0.23642E+01  0.68008E+01      982.00
  0.24285E+00  0.64721E+02    0.12500E+00  0.12500E+00 -0.25000E+00  0.00000E+00  0.00000E+00  0.00000E+00    0.16195E+02  0.25669E+02 -0.41864E+02 -0.26854E+01  0.22752E+01  0.68549E+01      982.00
  0.26710E+00  0.65030E+02    0.13750E+00  0.13750E+00 -0.27500E+00  0.00000E+00  0.00000E+00  0.00000E+00    0.16138E+02  0.25900E+02 -0.42038E+02 -0.27592E+01  0.22034E+01  0.69265E+01      982.00
  0.29135E+00  0.65347E+02    0.15000E+00  0.15000E+00 -0.30000E+00  0.00000E+00  0.00000E+00  0.00000E+00    0.16106E+02  0.26109E+02 -0.42215E+02 -0.28323E+01  0.21499E+01  0.70111E+01      982.00
  0.31557E+00  0.65685E+02    0.16250E+00  0.16250E+00 -0.32500E+00  0.00000E+00  0.00000E+00  0.00000E+00    0.16082E+02  0.26322E+02 -0.42404E+02 -0.29005E+01  0.21032E+01  0.71123E+01      982.00
  0.33978E+00  0.65986E+02    0.17500E+00  0.17500E+00 -0.35000E+00  0.00000E+00  0.00000E+00  0.00000E+00    0.16072E+02  0.26498E+02 -0.42571E+02 -0.29652E+01  0.20724E+01  0.72049E+01      982.00
  0.36397E+00  0.66338E+02    0.18750E+00  0.18750E+00 -0.37500E+00  0.00000E+00  0.00000E+00  0.00000E+00    0.16068E+02  0.26696E+02 -0.42764E+02 -0.30346E+01  0.20394E+01  0.73296E+01      982.00
  0.38815E+00  0.66652E+02    0.20000E+00  0.20000E+00 -0.40000E+00  0.00000E+00  0.00000E+00  0.00000E+00    0.16075E+02  0.26862E+02 -0.42937E+02 -0.31010E+01  0.20130E+01  0.74438E+01      982.00
  0.41230E+00  0.66950E+02    0.21250E+00  0.21250E+00 -0.42500E+00  0.00000E+00  0.00000E+00  0.00000E+00    0.16081E+02  0.27016E+02 -0.43098E+02 -0.31670E+01  0.19888E+01  0.75608E+01      982.00
  0.43644E+00  0.67237E+02    0.22500E+00  0.22500E+00 -0.45000E+00  0.00000E+00  0.00000E+00  0.00000E+00    0.16090E+02  0.27161E+02 -0.43251E+02 -0.32329E+01  0.19647E+01  0.76810E+01      982.00
  0.46057E+00  0.67505E+02    0.23750E+00  0.23750E+00 -0.47500E+00  0.00000E+00  0.00000E+00  0.00000E+00    0.16098E+02  0.27293E+02 -0.43391E+02 -0.32993E+01  0.19404E+01  0.78045E+01      982.00
  0.48467E+00  0.67750E+02    0.25000E+00  0.25000E+00 -0.50000E+00  0.00000E+00  0.00000E+00  0.00000E+00    0.16101E+02  0.27413E+02 -0.43514E+02 -0.33655E+01  0.19161E+01  0.79318E+01      982.00
  0.50876E+00  0.67984E+02    0.26250E+00  0.26250E+00 -0.52500E+00  0.00000E+00  0.00000E+00  0.00000E+00    0.16102E+02  0.27527E+02 -0.43629E+02 -0.34308E+01  0.18907E+01  0.80622E+01      982.00
  0.53282E+00  0.68198E+02    0.27500E+00  0.27500E+00 -0.55000E+00  0.00000E+00  0.00000E+00  0.00000E+00    0.16102E+02  0.27629E+02 -0.43730E+02 -0.34960E+01  0.18659E+01  0.81947E+01      982.00
  0.55687E+00  0.68395E+02    0.28750E+00  0.28750E+00 -0.57500E+00  0.00000E+00  0.00000E+00  0.00000E+00    0.16099E+02  0.27719E+02 -0.43818E+02 -0.35587E+01  0.18383E+01  0.83352E+01      982.00
  0.58089E+00  0.68576E+02    0.30000E+00  0.30000E+00 -0.60000E+00  0.00000E+00  0.00000E+00  0.00000E+00    0.16094E+02  0.27801E+02 -0.43895E+02 -0.36195E+01  0.18151E+01  0.84740E+01      982.00
  0.60490E+00  0.68735E+02    0.31250E+00  0.31250E+00 -0.62500E+00  0.00000E+00  0.00000E+00  0.00000E+00    0.16084E+02  0.27873E+02 -0.43957E+02 -0.36751E+01  0.17946E+01  0.86149E+01      982.00
  0.62888E+00  0.68875E+02    0.32500E+00  0.32500E+00 -0.65000E+00  0.00000E+00  0.00000E+00  0.00000E+00    0.16071E+02  0.27933E+02 -0.44005E+02 -0.37237E+01  0.17771E+01  0.87602E+01      982.00
  0.65284E+00  0.68997E+02    0.33750E+00  0.33750E+00 -0.67500E+00  0.00000E+00  0.00000E+00  0.00000E+00    0.16057E+02  0.27984E+02 -0.44041E+02 -0.37645E+01  0.17649E+01  0.89068E+01      982.00
  0.67677E+00  0.69104E+02    0.35000E+00  0.35000E+00 -0.70000E+00  0.00000E+00  0.00000E+00  0.00000E+00    0.16040E+02  0.28026E+02 -0.44066E+02 -0.37942E+01  0.17584E+01  0.90574E+01      982.00
  0.70069E+00  0.69200E+02    0.36250E+00  0.36250E+00 -0.72500E+00  0.00000E+00  0.00000E+00  0.00000E+00    0.16026E+02  0.28058E+02 -0.44085E+02 -0.38123E+01  0.17590E+01  0.92094E+01      982.00
  0.72458E+00  0.69278E+02    0.37500E+00  0.37500E+00 -0.75000E+00  0.00000E+00  0.00000E+00  0.00000E+00    0.16011E+02  0.28080E+02 -0.44092E+02 -0.38151E+01  0.17678E+01  0.93631E+01      982.00
  0.74844E+00  0.69337E+02    0.38750E+00  0.38750E+00 -0.77500E+00  0.00000E+00  0.00000E+00  0.00000E+00    0.15998E+02  0.28095E+02 -0.44092E+02 -0.38123E+01  0.17834E+01  0.94947E+01      982.00
  0.77229E+00  0.69393E+02    0.40000E+00  0.40000E+00 -0.80000E+00  0.00000E+00  0.00000E+00  0.00000E+00    0.15993E+02  0.28094E+02 -0.44087E+02 -0.37903E+01  0.18054E+01  0.96495E+01      982.00
  0.79611E+00  0.69445E+02    0.41250E+00  0.41250E+00 -0.82500E+00  0.00000E+00  0.00000E+00  0.00000E+00    0.15997E+02  0.28085E+02 -0.44082E+02 -0.37546E+01  0.18340E+01  0.98053E+01      982.00
  0.81992E+00  0.69473E+02    0.42500E+00  0.42500E+00 -0.85000E+00  0.00000E+00  0.00000E+00  0.00000E+00    0.16000E+02  0.28062E+02 -0.44062E+02 -0.37211E+01  0.18644E+01  0.99503E+01      982.00
  0.84370E+00  0.69508E+02    0.43750E+00  0.43750E+00 -0.87500E+00  0.00000E+00  0.00000E+00  0.00000E+00    0.16023E+02  0.28029E+02 -0.44052E+02 -0.36657E+01  0.19013E+01  0.10098E+02      982.00
  0.86747E+00  0.69537E+02    0.45000E+00  0.45000E+00 -0.90000E+00  0.00000E+00  0.00000E+00  0.00000E+00    0.16052E+02  0.27986E+02 -0.44039E+02 -0.36014E+01  0.19402E+01  0.10242E+02      982.00
  0.89122E+00  0.69561E+02    0.46250E+00  0.46250E+00 -0.92500E+00  0.00000E+00  0.00000E+00  0.00000E+00    0.16089E+02  0.27937E+02 -0.44026E+02 -0.35324E+01  0.19801E+01  0.10379E+02      982.00
  0.91495E+00  0.69547E+02    0.47500E+00  0.47500E+00 -0.95000E+00  0.00000E+00  0.00000E+00  0.00000E+00    0.16124E+02  0.27867E+02 -0.43991E+02 -0.34615E+01  0.20093E+01  0.10506E+02      982.00
  0.93867E+00  0.69529E+02    0.48750E+00  0.48750E+00 -0.97500E+00  0.00000E+00  0.00000E+00  0.00000E+00    0.16169E+02  0.27791E+02 -0.43960E+02 -0.33797E+01  0.20392E+01  0.10616E+02      982.00
  0.96238E+00  0.69515E+02    0.50000E+00  0.50000E+00 -0.10000E+01  0.00000E+00  0.00000E+00  0.00000E+00    0.16218E+02  0.27717E+02 -0.43935E+02 -0.32995E+01  0.20659E+01  0.10716E+02      982.00
