          Evm          Svm            E11          E22          E33          E23          E13          E12         SDEV11       SDEV22       SDEV33       SDEV23       SDEV13       SDEV12      TEMP
  0.00000E+00  0.61618E+02    0.00000E+00  0.00000E+00  0.00000E+00  0.00000E+00  0.00000E+00  0.00000E+00    0.18368E+02  0.22465E+02 -0.40833E+02  0.12389E+01 -0.12565E+01  0.27910E+01      982.00
  0.24850E-01  0.61830E+02    0.12500E-01  0.12500E-01 -0.25000E-01  0.00000E+00  0.00000E+00  0.00000E+00    0.19218E+02  0.21760E+02 -0.40978E+02  0.11732E+01 -0.15653E+01  0.30823E+01      982.00
  0.49703E-01  0.62149E+02    0.25000E-01  0.25000E-01 -0.50000E-01  0.00000E+00  0.00000E+00  0.00000E+00    0.20273E+02  0.20897E+02 -0.41170E+02  0.11231E+01 -0.18905E+01  0.33686E+01      982.00
  0.74545E-01  0.62468E+02    0.37500E-01  0.37500E-01 -0.75000E-01  0.00000E+00  0.00000E+00  0.00000E+00    0.21303E+02  0.20039E+02 -0.41341E+02  0.10964E+01 -0.21132E+01  0.35836E+01      982.00
  0.99362E-01  0.62725E+02    0.50000E-01  0.50000E-01 -0.10000E+00  0.00000E+00  0.00000E+00  0.00000E+00    0.22136E+02  0.19335E+02 -0.41471E+02  0.10841E+01 -0.21710E+01  0.37095E+01      982.00
  0.12416E+00  0.62934E+02    0.62500E-01  0.62500E-01 -0.12500E+00  0.00000E+00  0.00000E+00  0.00000E+00    0.22773E+02  0.18802E+02 -0.41575E+02  0.10704E+01 -0.21147E+01  0.37870E+01      982.00
  0.14893E+00  0.63123E+02    0.75000E-01  0.75000E-01 -0.15000E+00  0.00000E+00  0.00000E+00  0.00000E+00    0.23249E+02  0.18424E+02 -0.41673E+02  0.10489E+01 -0.19918E+01  0.38434E+01      982.00
  0.17369E+00  0.63325E+02    0.87500E-01  0.87500E-01 -0.17500E+00  0.00000E+00  0.00000E+00  0.00000E+00    0.23633E+02  0.18152E+02 -0.41786E+02  0.10188E+01 -0.18518E+01  0.38953E+01      982.00
  0.19843E+00  0.63541E+02    0.10000E+00  0.10000E+00 -0.20000E+00  0.00000E+00  0.00000E+00  0.00000E+00    0.23940E+02  0.17972E+02 -0.41912E+02  0.98116E+00 -0.17059E+01  0.39495E+01      982.00
  0.22317E+00  0.63775E+02    0.11250E+00  0.11250E+00 -0.22500E+00  0.00000E+00  0.00000E+00  0.00000E+00    0.24200E+02  0.17852E+02 -0.42052E+02  0.93805E+00 -0.15688E+01  0.40091E+01      982.00
  0.24789E+00  0.64030E+02    0.12500E+00  0.12500E+00 -0.25000E+00  0.00000E+00  0.00000E+00  0.00000E+00    0.24429E+02  0.17778E+02 -0.42207E+02  0.89095E+00 -0.14433E+01  0.40756E+01      982.00
  0.27261E+00  0.64308E+02    0.13750E+00  0.13750E+00 -0.27500E+00  0.00000E+00  0.00000E+00  0.00000E+00    0.24639E+02  0.17739E+02 -0.42378E+02  0.84058E+00 -0.13284E+01  0.41482E+01      982.00
  0.29732E+00  0.64608E+02    0.15000E+00  0.15000E+00 -0.30000E+00  0.00000E+00  0.00000E+00  0.00000E+00    0.24833E+02  0.17732E+02 -0.42565E+02  0.78734E+00 -0.12219E+01  0.42239E+01      982.00
  0.32203E+00  0.64907E+02    0.16250E+00  0.16250E+00 -0.32500E+00  0.00000E+00  0.00000E+00  0.00000E+00    0.25005E+02  0.17748E+02 -0.42753E+02  0.73832E+00 -0.11364E+01  0.42966E+01      982.00
  0.34673E+00  0.65220E+02    0.17500E+00  0.17500E+00 -0.35000E+00  0.00000E+00  0.00000E+00  0.00000E+00    0.25174E+02  0.17775E+02 -0.42949E+02  0.68332E+00 -0.10525E+01  0.43727E+01      982.00
  0.37142E+00  0.65522E+02    0.18750E+00  0.18750E+00 -0.37500E+00  0.00000E+00  0.00000E+00  0.00000E+00    0.25330E+02  0.17810E+02 -0.43140E+02  0.63363E+00 -0.98584E+00  0.44454E+01      982.00
  0.39611E+00  0.65800E+02    0.20000E+00  0.20000E+00 -0.40000E+00  0.00000E+00  0.00000E+00  0.00000E+00    0.25466E+02  0.17848E+02 -0.43315E+02  0.58528E+00 -0.92356E+00  0.45131E+01      982.00
  0.42080E+00  0.66065E+02    0.21250E+00  0.21250E+00 -0.42500E+00  0.00000E+00  0.00000E+00  0.00000E+00    0.25594E+02  0.17888E+02 -0.43482E+02  0.53700E+00 -0.86464E+00  0.45793E+01      982.00
  0.44548E+00  0.66315E+02    0.22500E+00  0.22500E+00 -0.45000E+00  0.00000E+00  0.00000E+00  0.00000E+00    0.25713E+02  0.17926E+02 -0.43639E+02  0.48921E+00 -0.80806E+00  0.46443E+01      982.00
  0.47016E+00  0.66551E+02    0.23750E+00  0.23750E+00 -0.47500E+00  0.00000E+00  0.00000E+00  0.00000E+00    0.25824E+02  0.17963E+02 -0.43787E+02  0.44203E+00 -0.75267E+00  0.47084E+01      982.00
  0.49483E+00  0.66773E+02    0.25000E+00  0.25000E+00 -0.50000E+00  0.00000E+00  0.00000E+00  0.00000E+00    0.25927E+02  0.17998E+02 -0.43925E+02  0.39556E+00 -0.69754E+00  0.47721E+01      982.00
  0.51950E+00  0.66980E+02    0.26250E+00  0.26250E+00 -0.52500E+00  0.00000E+00  0.00000E+00  0.00000E+00    0.26023E+02  0.18031E+02 -0.44054E+02  0.34992E+00 -0.64186E+00  0.48358E+01      982.00
  0.54416E+00  0.67173E+02    0.27500E+00  0.27500E+00 -0.55000E+00  0.00000E+00  0.00000E+00  0.00000E+00    0.26112E+02  0.18061E+02 -0.44173E+02  0.30522E+00 -0.58498E+00  0.49000E+01      982.00
  0.56882E+00  0.67354E+02    0.28750E+00  0.28750E+00 -0.57500E+00  0.00000E+00  0.00000E+00  0.00000E+00    0.26196E+02  0.18088E+02 -0.44283E+02  0.26161E+00 -0.52636E+00  0.49651E+01      982.00
  0.59348E+00  0.67523E+02    0.30000E+00  0.30000E+00 -0.60000E+00  0.00000E+00  0.00000E+00  0.00000E+00    0.26273E+02  0.18112E+02 -0.44385E+02  0.21925E+00 -0.46552E+00  0.50317E+01      982.00
  0.61813E+00  0.67682E+02    0.31250E+00  0.31250E+00 -0.62500E+00  0.00000E+00  0.00000E+00  0.00000E+00    0.26347E+02  0.18133E+02 -0.44481E+02  0.17770E+00 -0.40257E+00  0.51009E+01      982.00
  0.64277E+00  0.67830E+02    0.32500E+00  0.32500E+00 -0.65000E+00  0.00000E+00  0.00000E+00  0.00000E+00    0.26415E+02  0.18152E+02 -0.44567E+02  0.13836E+00 -0.33618E+00  0.51714E+01      982.00
  0.66741E+00  0.67956E+02    0.33750E+00  0.33750E+00 -0.67500E+00  0.00000E+00  0.00000E+00  0.00000E+00    0.26477E+02  0.18163E+02 -0.44639E+02  0.11314E+00 -0.28219E+00  0.52392E+01      982.00
  0.69205E+00  0.68087E+02    0.35000E+00  0.35000E+00 -0.70000E+00  0.00000E+00  0.00000E+00  0.00000E+00    0.26539E+02  0.18175E+02 -0.44714E+02  0.77627E-01 -0.21083E+00  0.53163E+01      982.00
  0.71667E+00  0.68211E+02    0.36250E+00  0.36250E+00 -0.72500E+00  0.00000E+00  0.00000E+00  0.00000E+00    0.26597E+02  0.18185E+02 -0.44782E+02  0.43936E-01 -0.13534E+00  0.53964E+01      982.00
  0.74129E+00  0.68327E+02    0.37500E+00  0.37500E+00 -0.75000E+00  0.00000E+00  0.00000E+00  0.00000E+00    0.26651E+02  0.18193E+02 -0.44844E+02  0.12584E-01 -0.55959E-01  0.54804E+01      982.00
  0.76591E+00  0.68436E+02    0.38750E+00  0.38750E+00 -0.77500E+00  0.00000E+00  0.00000E+00  0.00000E+00    0.26709E+02  0.18191E+02 -0.44900E+02 -0.88783E-02  0.16146E-01  0.55702E+01      982.00
  0.79051E+00  0.68540E+02    0.40000E+00  0.40000E+00 -0.80000E+00  0.00000E+00  0.00000E+00  0.00000E+00    0.26759E+02  0.18193E+02 -0.44952E+02 -0.35216E-01  0.10213E+00  0.56637E+01      982.00
  0.81510E+00  0.68639E+02    0.41250E+00  0.41250E+00 -0.82500E+00  0.00000E+00  0.00000E+00  0.00000E+00    0.26806E+02  0.18193E+02 -0.44998E+02 -0.58736E-01  0.19288E+00  0.57620E+01      982.00
  0.83969E+00  0.68734E+02    0.42500E+00  0.42500E+00 -0.85000E+00  0.00000E+00  0.00000E+00  0.00000E+00    0.26850E+02  0.18191E+02 -0.45041E+02 -0.78336E-01  0.28944E+00  0.58674E+01      982.00
  0.86426E+00  0.68828E+02    0.43750E+00  0.43750E+00 -0.87500E+00  0.00000E+00  0.00000E+00  0.00000E+00    0.26904E+02  0.18175E+02 -0.45079E+02 -0.93482E-01  0.38089E+00  0.59853E+01      982.00
  0.88882E+00  0.68861E+02    0.45000E+00  0.45000E+00 -0.90000E+00  0.00000E+00  0.00000E+00  0.00000E+00    0.26924E+02  0.18154E+02 -0.45078E+02 -0.10679E+00  0.47933E+00  0.60946E+01      982.00
  0.91337E+00  0.68894E+02    0.46250E+00  0.46250E+00 -0.92500E+00  0.00000E+00  0.00000E+00  0.00000E+00    0.26943E+02  0.18131E+02 -0.45075E+02 -0.11678E+00  0.58208E+00  0.62096E+01      982.00
  0.93790E+00  0.68926E+02    0.47500E+00  0.47500E+00 -0.95000E+00  0.00000E+00  0.00000E+00  0.00000E+00    0.26962E+02  0.18107E+02 -0.45069E+02 -0.12380E+00  0.68831E+00  0.63307E+01      982.00
  0.96242E+00  0.68962E+02    0.48750E+00  0.48750E+00 -0.97500E+00  0.00000E+00  0.00000E+00  0.00000E+00    0.26991E+02  0.18070E+02 -0.45061E+02 -0.12869E+00  0.79065E+00  0.64669E+01      982.00
  0.98693E+00  0.68992E+02    0.50000E+00  0.50000E+00 -0.10000E+01  0.00000E+00  0.00000E+00  0.00000E+00    0.27009E+02  0.18041E+02 -0.45050E+02 -0.13097E+00  0.90174E+00  0.66005E+01      982.00
