          Evm          Svm            E11          E22          E33          E23          E13          E12         SDEV11       SDEV22       SDEV33       SDEV23       SDEV13       SDEV12      TEMP
  0.00000E+00  0.62669E+02    0.00000E+00  0.00000E+00  0.00000E+00  0.00000E+00  0.00000E+00  0.00000E+00    0.23697E+02  0.16296E+02 -0.39993E+02 -0.37137E+01 -0.52252E+01 -0.74016E+01      982.00
  0.23931E-01  0.62731E+02    0.12500E-01  0.12500E-01 -0.25000E-01  0.00000E+00  0.00000E+00  0.00000E+00    0.23684E+02  0.16428E+02 -0.40112E+02 -0.36648E+01 -0.50874E+01 -0.72489E+01      982.00
  0.47909E-01  0.62606E+02    0.25000E-01  0.25000E-01 -0.50000E-01  0.00000E+00  0.00000E+00  0.00000E+00    0.23562E+02  0.16557E+02 -0.40119E+02 -0.35550E+01 -0.49756E+01 -0.70489E+01      982.00
  0.71940E-01  0.62578E+02    0.37500E-01  0.37500E-01 -0.75000E-01  0.00000E+00  0.00000E+00  0.00000E+00    0.23585E+02  0.16577E+02 -0.40162E+02 -0.33194E+01 -0.50384E+01 -0.68474E+01      982.00
  0.96007E-01  0.62673E+02    0.50000E-01  0.50000E-01 -0.10000E+00  0.00000E+00  0.00000E+00  0.00000E+00    0.23671E+02  0.16585E+02 -0.40256E+02 -0.30894E+01 -0.51977E+01 -0.66888E+01      982.00
  0.12009E+00  0.62865E+02    0.62500E-01  0.62500E-01 -0.12500E+00  0.00000E+00  0.00000E+00  0.00000E+00    0.23818E+02  0.16577E+02 -0.40396E+02 -0.28844E+01 -0.53816E+01 -0.65626E+01      982.00
  0.14419E+00  0.63104E+02    0.75000E-01  0.75000E-01 -0.15000E+00  0.00000E+00  0.00000E+00  0.00000E+00    0.24008E+02  0.16546E+02 -0.40554E+02 -0.27080E+01 -0.55508E+01 -0.64693E+01      982.00
  0.16829E+00  0.63391E+02    0.87500E-01  0.87500E-01 -0.17500E+00  0.00000E+00  0.00000E+00  0.00000E+00    0.24238E+02  0.16497E+02 -0.40736E+02 -0.25585E+01 -0.56925E+01 -0.64044E+01      982.00
  0.19239E+00  0.63726E+02    0.10000E+00  0.10000E+00 -0.20000E+00  0.00000E+00  0.00000E+00  0.00000E+00    0.24501E+02  0.16442E+02 -0.40943E+02 -0.24369E+01 -0.58035E+01 -0.63669E+01      982.00
  0.21648E+00  0.64075E+02    0.11250E+00  0.11250E+00 -0.22500E+00  0.00000E+00  0.00000E+00  0.00000E+00    0.24780E+02  0.16380E+02 -0.41159E+02 -0.23382E+01 -0.58823E+01 -0.63459E+01      982.00
  0.24057E+00  0.64449E+02    0.12500E+00  0.12500E+00 -0.25000E+00  0.00000E+00  0.00000E+00  0.00000E+00    0.25074E+02  0.16314E+02 -0.41389E+02 -0.22580E+01 -0.59374E+01 -0.63431E+01      982.00
  0.26465E+00  0.64843E+02    0.13750E+00  0.13750E+00 -0.27500E+00  0.00000E+00  0.00000E+00  0.00000E+00    0.25385E+02  0.16247E+02 -0.41631E+02 -0.21899E+01 -0.59727E+01 -0.63478E+01      982.00
  0.28873E+00  0.65238E+02    0.15000E+00  0.15000E+00 -0.30000E+00  0.00000E+00  0.00000E+00  0.00000E+00    0.25689E+02  0.16187E+02 -0.41876E+02 -0.21386E+01 -0.59895E+01 -0.63595E+01      982.00
  0.31280E+00  0.65609E+02    0.16250E+00  0.16250E+00 -0.32500E+00  0.00000E+00  0.00000E+00  0.00000E+00    0.25984E+02  0.16121E+02 -0.42105E+02 -0.20943E+01 -0.59914E+01 -0.63712E+01      982.00
  0.33687E+00  0.65993E+02    0.17500E+00  0.17500E+00 -0.35000E+00  0.00000E+00  0.00000E+00  0.00000E+00    0.26279E+02  0.16065E+02 -0.42344E+02 -0.20588E+01 -0.59848E+01 -0.63861E+01      982.00
  0.36093E+00  0.66353E+02    0.18750E+00  0.18750E+00 -0.37500E+00  0.00000E+00  0.00000E+00  0.00000E+00    0.26551E+02  0.16020E+02 -0.42570E+02 -0.20360E+01 -0.59661E+01 -0.63985E+01      982.00
  0.38499E+00  0.66696E+02    0.20000E+00  0.20000E+00 -0.40000E+00  0.00000E+00  0.00000E+00  0.00000E+00    0.26813E+02  0.15973E+02 -0.42786E+02 -0.20145E+01 -0.59429E+01 -0.64081E+01      982.00
  0.40904E+00  0.67019E+02    0.21250E+00  0.21250E+00 -0.42500E+00  0.00000E+00  0.00000E+00  0.00000E+00    0.27057E+02  0.15935E+02 -0.42991E+02 -0.19983E+01 -0.59121E+01 -0.64136E+01      982.00
  0.43310E+00  0.67326E+02    0.22500E+00  0.22500E+00 -0.45000E+00  0.00000E+00  0.00000E+00  0.00000E+00    0.27281E+02  0.15907E+02 -0.43188E+02 -0.19919E+01 -0.58768E+01 -0.64167E+01      982.00
  0.45715E+00  0.67598E+02    0.23750E+00  0.23750E+00 -0.47500E+00  0.00000E+00  0.00000E+00  0.00000E+00    0.27490E+02  0.15871E+02 -0.43362E+02 -0.19825E+01 -0.58412E+01 -0.64167E+01      982.00
  0.48121E+00  0.67868E+02    0.25000E+00  0.25000E+00 -0.50000E+00  0.00000E+00  0.00000E+00  0.00000E+00    0.27685E+02  0.15853E+02 -0.43538E+02 -0.19821E+01 -0.58001E+01 -0.64135E+01      982.00
  0.50527E+00  0.68105E+02    0.26250E+00  0.26250E+00 -0.52500E+00  0.00000E+00  0.00000E+00  0.00000E+00    0.27867E+02  0.15824E+02 -0.43691E+02 -0.19790E+01 -0.57620E+01 -0.64080E+01      982.00
  0.52932E+00  0.68331E+02    0.27500E+00  0.27500E+00 -0.55000E+00  0.00000E+00  0.00000E+00  0.00000E+00    0.28030E+02  0.15810E+02 -0.43840E+02 -0.19835E+01 -0.57173E+01 -0.63987E+01      982.00
  0.55338E+00  0.68539E+02    0.28750E+00  0.28750E+00 -0.57500E+00  0.00000E+00  0.00000E+00  0.00000E+00    0.28191E+02  0.15786E+02 -0.43977E+02 -0.19841E+01 -0.56748E+01 -0.63851E+01      982.00
  0.57744E+00  0.68730E+02    0.30000E+00  0.30000E+00 -0.60000E+00  0.00000E+00  0.00000E+00  0.00000E+00    0.28332E+02  0.15773E+02 -0.44105E+02 -0.19893E+01 -0.56298E+01 -0.63721E+01      982.00
  0.60151E+00  0.68913E+02    0.31250E+00  0.31250E+00 -0.62500E+00  0.00000E+00  0.00000E+00  0.00000E+00    0.28477E+02  0.15751E+02 -0.44228E+02 -0.19936E+01 -0.55800E+01 -0.63494E+01      982.00
  0.62558E+00  0.69081E+02    0.32500E+00  0.32500E+00 -0.65000E+00  0.00000E+00  0.00000E+00  0.00000E+00    0.28599E+02  0.15744E+02 -0.44343E+02 -0.20006E+01 -0.55336E+01 -0.63311E+01      982.00
  0.64965E+00  0.69224E+02    0.33750E+00  0.33750E+00 -0.67500E+00  0.00000E+00  0.00000E+00  0.00000E+00    0.28708E+02  0.15733E+02 -0.44441E+02 -0.20079E+01 -0.54889E+01 -0.63136E+01      982.00
  0.67372E+00  0.69373E+02    0.35000E+00  0.35000E+00 -0.70000E+00  0.00000E+00  0.00000E+00  0.00000E+00    0.28830E+02  0.15714E+02 -0.44544E+02 -0.20146E+01 -0.54304E+01 -0.62841E+01      982.00
  0.69780E+00  0.69485E+02    0.36250E+00  0.36250E+00 -0.72500E+00  0.00000E+00  0.00000E+00  0.00000E+00    0.28915E+02  0.15705E+02 -0.44620E+02 -0.20211E+01 -0.53990E+01 -0.62715E+01      982.00
  0.72188E+00  0.69602E+02    0.37500E+00  0.37500E+00 -0.75000E+00  0.00000E+00  0.00000E+00  0.00000E+00    0.29004E+02  0.15698E+02 -0.44702E+02 -0.20287E+01 -0.53555E+01 -0.62505E+01      982.00
  0.74596E+00  0.69709E+02    0.38750E+00  0.38750E+00 -0.77500E+00  0.00000E+00  0.00000E+00  0.00000E+00    0.29088E+02  0.15688E+02 -0.44776E+02 -0.20372E+01 -0.53126E+01 -0.62294E+01      982.00
  0.77005E+00  0.69807E+02    0.40000E+00  0.40000E+00 -0.80000E+00  0.00000E+00  0.00000E+00  0.00000E+00    0.29167E+02  0.15679E+02 -0.44846E+02 -0.20442E+01 -0.52711E+01 -0.62068E+01      982.00
  0.79414E+00  0.69906E+02    0.41250E+00  0.41250E+00 -0.82500E+00  0.00000E+00  0.00000E+00  0.00000E+00    0.29245E+02  0.15670E+02 -0.44915E+02 -0.20516E+01 -0.52306E+01 -0.61846E+01      982.00
  0.81824E+00  0.69984E+02    0.42500E+00  0.42500E+00 -0.85000E+00  0.00000E+00  0.00000E+00  0.00000E+00    0.29315E+02  0.15656E+02 -0.44971E+02 -0.20579E+01 -0.51914E+01 -0.61614E+01      982.00
  0.84233E+00  0.70069E+02    0.43750E+00  0.43750E+00 -0.87500E+00  0.00000E+00  0.00000E+00  0.00000E+00    0.29387E+02  0.15644E+02 -0.45031E+02 -0.20642E+01 -0.51537E+01 -0.61380E+01      982.00
  0.86643E+00  0.70073E+02    0.45000E+00  0.45000E+00 -0.90000E+00  0.00000E+00  0.00000E+00  0.00000E+00    0.29398E+02  0.15645E+02 -0.45043E+02 -0.20682E+01 -0.51064E+01 -0.61186E+01      982.00
  0.89054E+00  0.70086E+02    0.46250E+00  0.46250E+00 -0.92500E+00  0.00000E+00  0.00000E+00  0.00000E+00    0.29426E+02  0.15636E+02 -0.45062E+02 -0.20686E+01 -0.50525E+01 -0.60873E+01      982.00
  0.91465E+00  0.70084E+02    0.47500E+00  0.47500E+00 -0.95000E+00  0.00000E+00  0.00000E+00  0.00000E+00    0.29449E+02  0.15621E+02 -0.45070E+02 -0.20688E+01 -0.50012E+01 -0.60575E+01      982.00
  0.93877E+00  0.70094E+02    0.48750E+00  0.48750E+00 -0.97500E+00  0.00000E+00  0.00000E+00  0.00000E+00    0.29477E+02  0.15609E+02 -0.45085E+02 -0.20683E+01 -0.49513E+01 -0.60275E+01      982.00
  0.96289E+00  0.70100E+02    0.50000E+00  0.50000E+00 -0.10000E+01  0.00000E+00  0.00000E+00  0.00000E+00    0.29502E+02  0.15595E+02 -0.45097E+02 -0.20683E+01 -0.49033E+01 -0.59987E+01      982.00
