          Evm          Svm            E11          E22          E33          E23          E13          E12         SDEV11       SDEV22       SDEV33       SDEV23       SDEV13       SDEV12      TEMP
  0.00000E+00  0.59862E+02    0.00000E+00  0.00000E+00  0.00000E+00  0.00000E+00  0.00000E+00  0.00000E+00    0.14906E+02  0.22324E+02 -0.37230E+02 -0.38515E+00  0.27179E+01  0.11562E+02      982.00
  0.23322E-01  0.60028E+02    0.12500E-01  0.12500E-01 -0.25000E-01  0.00000E+00  0.00000E+00  0.00000E+00    0.15124E+02  0.22176E+02 -0.37300E+02 -0.47742E+00  0.26826E+01  0.11738E+02      982.00
  0.46624E-01  0.60232E+02    0.25000E-01  0.25000E-01 -0.50000E-01  0.00000E+00  0.00000E+00  0.00000E+00    0.15309E+02  0.22092E+02 -0.37401E+02 -0.59049E+00  0.26303E+01  0.11890E+02      982.00
  0.69910E-01  0.60455E+02    0.37500E-01  0.37500E-01 -0.75000E-01  0.00000E+00  0.00000E+00  0.00000E+00    0.15482E+02  0.22045E+02 -0.37527E+02 -0.73694E+00  0.25711E+01  0.12005E+02      982.00
  0.93188E-01  0.60674E+02    0.50000E-01  0.50000E-01 -0.10000E+00  0.00000E+00  0.00000E+00  0.00000E+00    0.15620E+02  0.22049E+02 -0.37669E+02 -0.91231E+00  0.25072E+01  0.12060E+02      982.00
  0.11647E+00  0.60840E+02    0.62500E-01  0.62500E-01 -0.12500E+00  0.00000E+00  0.00000E+00  0.00000E+00    0.15688E+02  0.22110E+02 -0.37799E+02 -0.11096E+01  0.24246E+01  0.12035E+02      982.00
  0.13977E+00  0.60977E+02    0.75000E-01  0.75000E-01 -0.15000E+00  0.00000E+00  0.00000E+00  0.00000E+00    0.15686E+02  0.22237E+02 -0.37923E+02 -0.13132E+01  0.23001E+01  0.11960E+02      982.00
  0.16309E+00  0.61110E+02    0.87500E-01  0.87500E-01 -0.17500E+00  0.00000E+00  0.00000E+00  0.00000E+00    0.15645E+02  0.22401E+02 -0.38046E+02 -0.15116E+01  0.21220E+01  0.11873E+02      982.00
  0.18644E+00  0.61267E+02    0.10000E+00  0.10000E+00 -0.20000E+00  0.00000E+00  0.00000E+00  0.00000E+00    0.15584E+02  0.22590E+02 -0.38175E+02 -0.16918E+01  0.19039E+01  0.11810E+02      982.00
  0.20980E+00  0.61457E+02    0.11250E+00  0.11250E+00 -0.22500E+00  0.00000E+00  0.00000E+00  0.00000E+00    0.15517E+02  0.22791E+02 -0.38309E+02 -0.18411E+01  0.16726E+01  0.11786E+02      982.00
  0.23318E+00  0.61682E+02    0.12500E+00  0.12500E+00 -0.25000E+00  0.00000E+00  0.00000E+00  0.00000E+00    0.15456E+02  0.22992E+02 -0.38448E+02 -0.19615E+01  0.14472E+01  0.11806E+02      982.00
  0.25655E+00  0.61932E+02    0.13750E+00  0.13750E+00 -0.27500E+00  0.00000E+00  0.00000E+00  0.00000E+00    0.15399E+02  0.23191E+02 -0.38590E+02 -0.20572E+01  0.12379E+01  0.11862E+02      982.00
  0.27992E+00  0.62211E+02    0.15000E+00  0.15000E+00 -0.30000E+00  0.00000E+00  0.00000E+00  0.00000E+00    0.15354E+02  0.23381E+02 -0.38735E+02 -0.21272E+01  0.10498E+01  0.11960E+02      982.00
  0.30327E+00  0.62521E+02    0.16250E+00  0.16250E+00 -0.32500E+00  0.00000E+00  0.00000E+00  0.00000E+00    0.15325E+02  0.23560E+02 -0.38885E+02 -0.21745E+01  0.88360E+00  0.12101E+02      982.00
  0.32659E+00  0.62829E+02    0.17500E+00  0.17500E+00 -0.35000E+00  0.00000E+00  0.00000E+00  0.00000E+00    0.15309E+02  0.23723E+02 -0.39032E+02 -0.22075E+01  0.76556E+00  0.12249E+02      982.00
  0.34989E+00  0.63109E+02    0.18750E+00  0.18750E+00 -0.37500E+00  0.00000E+00  0.00000E+00  0.00000E+00    0.15297E+02  0.23866E+02 -0.39163E+02 -0.22295E+01  0.68541E+00  0.12388E+02      982.00
  0.37316E+00  0.63419E+02    0.20000E+00  0.20000E+00 -0.40000E+00  0.00000E+00  0.00000E+00  0.00000E+00    0.15287E+02  0.24018E+02 -0.39305E+02 -0.22416E+01  0.62332E+00  0.12551E+02      982.00
  0.39640E+00  0.63723E+02    0.21250E+00  0.21250E+00 -0.42500E+00  0.00000E+00  0.00000E+00  0.00000E+00    0.15272E+02  0.24170E+02 -0.39442E+02 -0.22465E+01  0.58829E+00  0.12712E+02      982.00
  0.41961E+00  0.64020E+02    0.22500E+00  0.22500E+00 -0.45000E+00  0.00000E+00  0.00000E+00  0.00000E+00    0.15247E+02  0.24329E+02 -0.39576E+02 -0.22472E+01  0.58029E+00  0.12863E+02      982.00
  0.44279E+00  0.64295E+02    0.23750E+00  0.23750E+00 -0.47500E+00  0.00000E+00  0.00000E+00  0.00000E+00    0.15218E+02  0.24487E+02 -0.39705E+02 -0.22521E+01  0.59715E+00  0.12987E+02      982.00
  0.46595E+00  0.64572E+02    0.25000E+00  0.25000E+00 -0.50000E+00  0.00000E+00  0.00000E+00  0.00000E+00    0.15167E+02  0.24666E+02 -0.39833E+02 -0.22543E+01  0.63960E+00  0.13108E+02      982.00
  0.48908E+00  0.64863E+02    0.26250E+00  0.26250E+00 -0.52500E+00  0.00000E+00  0.00000E+00  0.00000E+00    0.15108E+02  0.24862E+02 -0.39970E+02 -0.22673E+01  0.70731E+00  0.13219E+02      982.00
  0.51219E+00  0.65115E+02    0.27500E+00  0.27500E+00 -0.55000E+00  0.00000E+00  0.00000E+00  0.00000E+00    0.15027E+02  0.25067E+02 -0.40094E+02 -0.22830E+01  0.80267E+00  0.13290E+02      982.00
  0.53528E+00  0.65354E+02    0.28750E+00  0.28750E+00 -0.57500E+00  0.00000E+00  0.00000E+00  0.00000E+00    0.14940E+02  0.25276E+02 -0.40215E+02 -0.23108E+01  0.92178E+00  0.13337E+02      982.00
  0.55836E+00  0.65585E+02    0.30000E+00  0.30000E+00 -0.60000E+00  0.00000E+00  0.00000E+00  0.00000E+00    0.14850E+02  0.25490E+02 -0.40340E+02 -0.23473E+01  0.10585E+01  0.13356E+02      982.00
  0.58142E+00  0.65805E+02    0.31250E+00  0.31250E+00 -0.62500E+00  0.00000E+00  0.00000E+00  0.00000E+00    0.14753E+02  0.25713E+02 -0.40466E+02 -0.23917E+01  0.12135E+01  0.13344E+02      982.00
  0.60448E+00  0.66016E+02    0.32500E+00  0.32500E+00 -0.65000E+00  0.00000E+00  0.00000E+00  0.00000E+00    0.14662E+02  0.25933E+02 -0.40595E+02 -0.24429E+01  0.13777E+01  0.13309E+02      982.00
  0.62754E+00  0.66219E+02    0.33750E+00  0.33750E+00 -0.67500E+00  0.00000E+00  0.00000E+00  0.00000E+00    0.14584E+02  0.26141E+02 -0.40725E+02 -0.24978E+01  0.15437E+01  0.13257E+02      982.00
  0.65061E+00  0.66416E+02    0.35000E+00  0.35000E+00 -0.70000E+00  0.00000E+00  0.00000E+00  0.00000E+00    0.14524E+02  0.26334E+02 -0.40858E+02 -0.25535E+01  0.17056E+01  0.13191E+02      982.00
  0.67368E+00  0.66605E+02    0.36250E+00  0.36250E+00 -0.72500E+00  0.00000E+00  0.00000E+00  0.00000E+00    0.14475E+02  0.26518E+02 -0.40994E+02 -0.26092E+01  0.18646E+01  0.13110E+02      982.00
  0.69676E+00  0.66788E+02    0.37500E+00  0.37500E+00 -0.75000E+00  0.00000E+00  0.00000E+00  0.00000E+00    0.14456E+02  0.26673E+02 -0.41129E+02 -0.26598E+01  0.20059E+01  0.13030E+02      982.00
  0.71985E+00  0.66964E+02    0.38750E+00  0.38750E+00 -0.77500E+00  0.00000E+00  0.00000E+00  0.00000E+00    0.14455E+02  0.26810E+02 -0.41265E+02 -0.27055E+01  0.21337E+01  0.12947E+02      982.00
  0.74296E+00  0.67133E+02    0.40000E+00  0.40000E+00 -0.80000E+00  0.00000E+00  0.00000E+00  0.00000E+00    0.14472E+02  0.26928E+02 -0.41399E+02 -0.27457E+01  0.22476E+01  0.12863E+02      982.00
  0.76608E+00  0.67303E+02    0.41250E+00  0.41250E+00 -0.82500E+00  0.00000E+00  0.00000E+00  0.00000E+00    0.14505E+02  0.27036E+02 -0.41540E+02 -0.27804E+01  0.23499E+01  0.12775E+02      982.00
  0.78923E+00  0.67453E+02    0.42500E+00  0.42500E+00 -0.85000E+00  0.00000E+00  0.00000E+00  0.00000E+00    0.14540E+02  0.27128E+02 -0.41668E+02 -0.28119E+01  0.24439E+01  0.12687E+02      982.00
  0.81239E+00  0.67601E+02    0.43750E+00  0.43750E+00 -0.87500E+00  0.00000E+00  0.00000E+00  0.00000E+00    0.14596E+02  0.27200E+02 -0.41797E+02 -0.28345E+01  0.25182E+01  0.12609E+02      982.00
  0.83558E+00  0.67742E+02    0.45000E+00  0.45000E+00 -0.90000E+00  0.00000E+00  0.00000E+00  0.00000E+00    0.14661E+02  0.27261E+02 -0.41922E+02 -0.28515E+01  0.25813E+01  0.12533E+02      982.00
  0.85879E+00  0.67876E+02    0.46250E+00  0.46250E+00 -0.92500E+00  0.00000E+00  0.00000E+00  0.00000E+00    0.14731E+02  0.27313E+02 -0.42044E+02 -0.28633E+01  0.26344E+01  0.12460E+02      982.00
  0.88201E+00  0.67994E+02    0.47500E+00  0.47500E+00 -0.95000E+00  0.00000E+00  0.00000E+00  0.00000E+00    0.14792E+02  0.27360E+02 -0.42151E+02 -0.28738E+01  0.26877E+01  0.12390E+02      982.00
  0.90526E+00  0.68115E+02    0.48750E+00  0.48750E+00 -0.97500E+00  0.00000E+00  0.00000E+00  0.00000E+00    0.14870E+02  0.27395E+02 -0.42265E+02 -0.28760E+01  0.27235E+01  0.12325E+02      982.00
  0.92853E+00  0.68230E+02    0.50000E+00  0.50000E+00 -0.10000E+01  0.00000E+00  0.00000E+00  0.00000E+00    0.14950E+02  0.27424E+02 -0.42374E+02 -0.28740E+01  0.27518E+01  0.12263E+02      982.00
