          Evm          Svm            E11          E22          E33          E23          E13          E12         SDEV11       SDEV22       SDEV33       SDEV23       SDEV13       SDEV12      TEMP
  0.00000E+00  0.65254E+02    0.00000E+00  0.00000E+00  0.00000E+00  0.00000E+00  0.00000E+00  0.00000E+00    0.20906E+02  0.21425E+02 -0.42331E+02 -0.38421E+01 -0.29025E+01 -0.72236E+01      982.00
  0.24327E-01  0.64983E+02    0.12500E-01  0.12500E-01 -0.25000E-01  0.00000E+00  0.00000E+00  0.00000E+00    0.21075E+02  0.21169E+02 -0.42245E+02 -0.36227E+01 -0.29403E+01 -0.68818E+01      982.00
  0.48705E-01  0.64791E+02    0.25000E-01  0.25000E-01 -0.50000E-01  0.00000E+00  0.00000E+00  0.00000E+00    0.21202E+02  0.20999E+02 -0.42201E+02 -0.34479E+01 -0.30252E+01 -0.65213E+01      982.00
  0.73130E-01  0.64699E+02    0.37500E-01  0.37500E-01 -0.75000E-01  0.00000E+00  0.00000E+00  0.00000E+00    0.21330E+02  0.20873E+02 -0.42203E+02 -0.33172E+01 -0.31749E+01 -0.61955E+01      982.00
  0.97591E-01  0.64691E+02    0.50000E-01  0.50000E-01 -0.10000E+00  0.00000E+00  0.00000E+00  0.00000E+00    0.21448E+02  0.20788E+02 -0.42237E+02 -0.32348E+01 -0.33517E+01 -0.59344E+01      982.00
  0.12208E+00  0.64750E+02    0.62500E-01  0.62500E-01 -0.12500E+00  0.00000E+00  0.00000E+00  0.00000E+00    0.21568E+02  0.20728E+02 -0.42296E+02 -0.31860E+01 -0.35298E+01 -0.57434E+01      982.00
  0.14657E+00  0.64864E+02    0.75000E-01  0.75000E-01 -0.15000E+00  0.00000E+00  0.00000E+00  0.00000E+00    0.21691E+02  0.20688E+02 -0.42379E+02 -0.31615E+01 -0.36918E+01 -0.56170E+01      982.00
  0.17107E+00  0.65019E+02    0.87500E-01  0.87500E-01 -0.17500E+00  0.00000E+00  0.00000E+00  0.00000E+00    0.21817E+02  0.20664E+02 -0.42481E+02 -0.31540E+01 -0.38292E+01 -0.55440E+01      982.00
  0.19557E+00  0.65210E+02    0.10000E+00  0.10000E+00 -0.20000E+00  0.00000E+00  0.00000E+00  0.00000E+00    0.21957E+02  0.20644E+02 -0.42600E+02 -0.31551E+01 -0.39450E+01 -0.55128E+01      982.00
  0.22007E+00  0.65419E+02    0.11250E+00  0.11250E+00 -0.22500E+00  0.00000E+00  0.00000E+00  0.00000E+00    0.22118E+02  0.20612E+02 -0.42729E+02 -0.31553E+01 -0.40417E+01 -0.55066E+01      982.00
  0.24457E+00  0.65654E+02    0.12500E+00  0.12500E+00 -0.25000E+00  0.00000E+00  0.00000E+00  0.00000E+00    0.22289E+02  0.20584E+02 -0.42873E+02 -0.31625E+01 -0.41212E+01 -0.55266E+01      982.00
  0.26905E+00  0.65904E+02    0.13750E+00  0.13750E+00 -0.27500E+00  0.00000E+00  0.00000E+00  0.00000E+00    0.22474E+02  0.20550E+02 -0.43025E+02 -0.31705E+01 -0.41869E+01 -0.55602E+01      982.00
  0.29353E+00  0.66159E+02    0.15000E+00  0.15000E+00 -0.30000E+00  0.00000E+00  0.00000E+00  0.00000E+00    0.22672E+02  0.20508E+02 -0.43179E+02 -0.31787E+01 -0.42417E+01 -0.56012E+01      982.00
  0.31801E+00  0.66414E+02    0.16250E+00  0.16250E+00 -0.32500E+00  0.00000E+00  0.00000E+00  0.00000E+00    0.22879E+02  0.20455E+02 -0.43334E+02 -0.31861E+01 -0.42876E+01 -0.56445E+01      982.00
  0.34248E+00  0.66664E+02    0.17500E+00  0.17500E+00 -0.35000E+00  0.00000E+00  0.00000E+00  0.00000E+00    0.23093E+02  0.20393E+02 -0.43486E+02 -0.31928E+01 -0.43264E+01 -0.56869E+01      982.00
  0.36694E+00  0.66906E+02    0.18750E+00  0.18750E+00 -0.37500E+00  0.00000E+00  0.00000E+00  0.00000E+00    0.23312E+02  0.20320E+02 -0.43633E+02 -0.31988E+01 -0.43595E+01 -0.57260E+01      982.00
  0.39140E+00  0.67135E+02    0.20000E+00  0.20000E+00 -0.40000E+00  0.00000E+00  0.00000E+00  0.00000E+00    0.23534E+02  0.20238E+02 -0.43772E+02 -0.32042E+01 -0.43881E+01 -0.57605E+01      982.00
  0.41585E+00  0.67352E+02    0.21250E+00  0.21250E+00 -0.42500E+00  0.00000E+00  0.00000E+00  0.00000E+00    0.23757E+02  0.20145E+02 -0.43902E+02 -0.32089E+01 -0.44131E+01 -0.57895E+01      982.00
  0.44029E+00  0.67555E+02    0.22500E+00  0.22500E+00 -0.45000E+00  0.00000E+00  0.00000E+00  0.00000E+00    0.23980E+02  0.20044E+02 -0.44024E+02 -0.32131E+01 -0.44351E+01 -0.58127E+01      982.00
  0.46473E+00  0.67748E+02    0.23750E+00  0.23750E+00 -0.47500E+00  0.00000E+00  0.00000E+00  0.00000E+00    0.24208E+02  0.19931E+02 -0.44139E+02 -0.32123E+01 -0.44565E+01 -0.58280E+01      982.00
  0.48916E+00  0.67922E+02    0.25000E+00  0.25000E+00 -0.50000E+00  0.00000E+00  0.00000E+00  0.00000E+00    0.24428E+02  0.19814E+02 -0.44242E+02 -0.32156E+01 -0.44741E+01 -0.58397E+01      982.00
  0.51359E+00  0.68084E+02    0.26250E+00  0.26250E+00 -0.52500E+00  0.00000E+00  0.00000E+00  0.00000E+00    0.24645E+02  0.19692E+02 -0.44337E+02 -0.32185E+01 -0.44897E+01 -0.58459E+01      982.00
  0.53801E+00  0.68232E+02    0.27500E+00  0.27500E+00 -0.55000E+00  0.00000E+00  0.00000E+00  0.00000E+00    0.24859E+02  0.19563E+02 -0.44423E+02 -0.32210E+01 -0.45038E+01 -0.58469E+01      982.00
  0.56242E+00  0.68369E+02    0.28750E+00  0.28750E+00 -0.57500E+00  0.00000E+00  0.00000E+00  0.00000E+00    0.25070E+02  0.19431E+02 -0.44501E+02 -0.32231E+01 -0.45163E+01 -0.58429E+01      982.00
  0.58683E+00  0.68495E+02    0.30000E+00  0.30000E+00 -0.60000E+00  0.00000E+00  0.00000E+00  0.00000E+00    0.25277E+02  0.19295E+02 -0.44572E+02 -0.32246E+01 -0.45275E+01 -0.58345E+01      982.00
  0.61123E+00  0.68612E+02    0.31250E+00  0.31250E+00 -0.62500E+00  0.00000E+00  0.00000E+00  0.00000E+00    0.25480E+02  0.19156E+02 -0.44636E+02 -0.32258E+01 -0.45375E+01 -0.58219E+01      982.00
  0.63563E+00  0.68720E+02    0.32500E+00  0.32500E+00 -0.65000E+00  0.00000E+00  0.00000E+00  0.00000E+00    0.25680E+02  0.19016E+02 -0.44695E+02 -0.32264E+01 -0.45463E+01 -0.58056E+01      982.00
  0.66002E+00  0.68819E+02    0.33750E+00  0.33750E+00 -0.67500E+00  0.00000E+00  0.00000E+00  0.00000E+00    0.25874E+02  0.18874E+02 -0.44748E+02 -0.32268E+01 -0.45540E+01 -0.57858E+01      982.00
  0.68440E+00  0.68910E+02    0.35000E+00  0.35000E+00 -0.70000E+00  0.00000E+00  0.00000E+00  0.00000E+00    0.26068E+02  0.18727E+02 -0.44795E+02 -0.32190E+01 -0.45667E+01 -0.57617E+01      982.00
  0.70878E+00  0.68995E+02    0.36250E+00  0.36250E+00 -0.72500E+00  0.00000E+00  0.00000E+00  0.00000E+00    0.26254E+02  0.18585E+02 -0.44839E+02 -0.32188E+01 -0.45724E+01 -0.57362E+01      982.00
  0.73315E+00  0.69074E+02    0.37500E+00  0.37500E+00 -0.75000E+00  0.00000E+00  0.00000E+00  0.00000E+00    0.26434E+02  0.18444E+02 -0.44878E+02 -0.32186E+01 -0.45769E+01 -0.57081E+01      982.00
  0.75751E+00  0.69147E+02    0.38750E+00  0.38750E+00 -0.77500E+00  0.00000E+00  0.00000E+00  0.00000E+00    0.26610E+02  0.18304E+02 -0.44914E+02 -0.32183E+01 -0.45805E+01 -0.56777E+01      982.00
  0.78187E+00  0.69214E+02    0.40000E+00  0.40000E+00 -0.80000E+00  0.00000E+00  0.00000E+00  0.00000E+00    0.26780E+02  0.18165E+02 -0.44946E+02 -0.32177E+01 -0.45831E+01 -0.56451E+01      982.00
  0.80622E+00  0.69280E+02    0.41250E+00  0.41250E+00 -0.82500E+00  0.00000E+00  0.00000E+00  0.00000E+00    0.26950E+02  0.18026E+02 -0.44977E+02 -0.32170E+01 -0.45854E+01 -0.56088E+01      982.00
  0.83057E+00  0.69339E+02    0.42500E+00  0.42500E+00 -0.85000E+00  0.00000E+00  0.00000E+00  0.00000E+00    0.27111E+02  0.17892E+02 -0.45003E+02 -0.32161E+01 -0.45863E+01 -0.55724E+01      982.00
  0.85491E+00  0.69394E+02    0.43750E+00  0.43750E+00 -0.87500E+00  0.00000E+00  0.00000E+00  0.00000E+00    0.27267E+02  0.17760E+02 -0.45027E+02 -0.32153E+01 -0.45863E+01 -0.55344E+01      982.00
  0.87924E+00  0.69445E+02    0.45000E+00  0.45000E+00 -0.90000E+00  0.00000E+00  0.00000E+00  0.00000E+00    0.27418E+02  0.17631E+02 -0.45049E+02 -0.32144E+01 -0.45856E+01 -0.54950E+01      982.00
  0.90356E+00  0.69429E+02    0.46250E+00  0.46250E+00 -0.92500E+00  0.00000E+00  0.00000E+00  0.00000E+00    0.27518E+02  0.17514E+02 -0.45032E+02 -0.32024E+01 -0.45668E+01 -0.54543E+01      982.00
  0.92789E+00  0.69423E+02    0.47500E+00  0.47500E+00 -0.95000E+00  0.00000E+00  0.00000E+00  0.00000E+00    0.27617E+02  0.17405E+02 -0.45023E+02 -0.31829E+01 -0.45555E+01 -0.54127E+01      982.00
  0.95221E+00  0.69414E+02    0.48750E+00  0.48750E+00 -0.97500E+00  0.00000E+00  0.00000E+00  0.00000E+00    0.27721E+02  0.17290E+02 -0.45011E+02 -0.31738E+01 -0.45353E+01 -0.53663E+01      982.00
  0.97652E+00  0.69405E+02    0.50000E+00  0.50000E+00 -0.10000E+01  0.00000E+00  0.00000E+00  0.00000E+00    0.27819E+02  0.17179E+02 -0.44999E+02 -0.31656E+01 -0.45148E+01 -0.53203E+01      982.00
