          Evm          Svm            E11          E22          E33          E23          E13          E12         SDEV11       SDEV22       SDEV33       SDEV23       SDEV13       SDEV12      TEMP
  0.00000E+00  0.56861E+02    0.00000E+00  0.00000E+00  0.00000E+00  0.00000E+00  0.00000E+00  0.00000E+00    0.13134E+02  0.23237E+02 -0.36370E+02 -0.30444E+01  0.67871E+01  0.21869E+01      982.00
  0.23986E-01  0.56695E+02    0.12500E-01  0.12500E-01 -0.25000E-01  0.00000E+00  0.00000E+00  0.00000E+00    0.13061E+02  0.23257E+02 -0.36318E+02 -0.28642E+01  0.65668E+01  0.22073E+01      982.00
  0.48008E-01  0.56617E+02    0.25000E-01  0.25000E-01 -0.50000E-01  0.00000E+00  0.00000E+00  0.00000E+00    0.12996E+02  0.23312E+02 -0.36308E+02 -0.27023E+01  0.63951E+01  0.22299E+01      982.00
  0.72057E-01  0.56638E+02    0.37500E-01  0.37500E-01 -0.75000E-01  0.00000E+00  0.00000E+00  0.00000E+00    0.12954E+02  0.23399E+02 -0.36354E+02 -0.25514E+01  0.62600E+01  0.22614E+01      982.00
  0.96127E-01  0.56776E+02    0.50000E-01  0.50000E-01 -0.10000E+00  0.00000E+00  0.00000E+00  0.00000E+00    0.12927E+02  0.23532E+02 -0.36458E+02 -0.24266E+01  0.61868E+01  0.23011E+01      982.00
  0.12021E+00  0.57033E+02    0.62500E-01  0.62500E-01 -0.12500E+00  0.00000E+00  0.00000E+00  0.00000E+00    0.12923E+02  0.23708E+02 -0.36631E+02 -0.23206E+01  0.61584E+01  0.23469E+01      982.00
  0.14429E+00  0.57396E+02    0.75000E-01  0.75000E-01 -0.15000E+00  0.00000E+00  0.00000E+00  0.00000E+00    0.12942E+02  0.23921E+02 -0.36863E+02 -0.22322E+01  0.61703E+01  0.23960E+01      982.00
  0.16838E+00  0.57846E+02    0.87500E-01  0.87500E-01 -0.17500E+00  0.00000E+00  0.00000E+00  0.00000E+00    0.12981E+02  0.24165E+02 -0.37146E+02 -0.21584E+01  0.62152E+01  0.24459E+01      982.00
  0.19246E+00  0.58364E+02    0.10000E+00  0.10000E+00 -0.20000E+00  0.00000E+00  0.00000E+00  0.00000E+00    0.13039E+02  0.24429E+02 -0.37468E+02 -0.20962E+01  0.62852E+01  0.24946E+01      982.00
  0.21653E+00  0.58921E+02    0.11250E+00  0.11250E+00 -0.22500E+00  0.00000E+00  0.00000E+00  0.00000E+00    0.13112E+02  0.24702E+02 -0.37814E+02 -0.20412E+01  0.63719E+01  0.25399E+01      982.00
  0.24060E+00  0.59498E+02    0.12500E+00  0.12500E+00 -0.25000E+00  0.00000E+00  0.00000E+00  0.00000E+00    0.13195E+02  0.24977E+02 -0.38172E+02 -0.19911E+01  0.64685E+01  0.25810E+01      982.00
  0.26466E+00  0.60079E+02    0.13750E+00  0.13750E+00 -0.27500E+00  0.00000E+00  0.00000E+00  0.00000E+00    0.13286E+02  0.25247E+02 -0.38533E+02 -0.19437E+01  0.65691E+01  0.26171E+01      982.00
  0.28871E+00  0.60641E+02    0.15000E+00  0.15000E+00 -0.30000E+00  0.00000E+00  0.00000E+00  0.00000E+00    0.13381E+02  0.25502E+02 -0.38883E+02 -0.18908E+01  0.66759E+01  0.26481E+01      982.00
  0.31275E+00  0.61192E+02    0.16250E+00  0.16250E+00 -0.32500E+00  0.00000E+00  0.00000E+00  0.00000E+00    0.13478E+02  0.25749E+02 -0.39227E+02 -0.18444E+01  0.67723E+01  0.26736E+01      982.00
  0.33679E+00  0.61715E+02    0.17500E+00  0.17500E+00 -0.35000E+00  0.00000E+00  0.00000E+00  0.00000E+00    0.13576E+02  0.25981E+02 -0.39557E+02 -0.17980E+01  0.68621E+01  0.26930E+01      982.00
  0.36083E+00  0.62212E+02    0.18750E+00  0.18750E+00 -0.37500E+00  0.00000E+00  0.00000E+00  0.00000E+00    0.13673E+02  0.26198E+02 -0.39871E+02 -0.17508E+01  0.69426E+01  0.27070E+01      982.00
  0.38486E+00  0.62672E+02    0.20000E+00  0.20000E+00 -0.40000E+00  0.00000E+00  0.00000E+00  0.00000E+00    0.13766E+02  0.26398E+02 -0.40164E+02 -0.17032E+01  0.70172E+01  0.27152E+01      982.00
  0.40889E+00  0.63079E+02    0.21250E+00  0.21250E+00 -0.42500E+00  0.00000E+00  0.00000E+00  0.00000E+00    0.13852E+02  0.26573E+02 -0.40425E+02 -0.16566E+01  0.70744E+01  0.27188E+01      982.00
  0.43293E+00  0.63470E+02    0.22500E+00  0.22500E+00 -0.45000E+00  0.00000E+00  0.00000E+00  0.00000E+00    0.13933E+02  0.26741E+02 -0.40675E+02 -0.16019E+01  0.71453E+01  0.27166E+01      982.00
  0.45696E+00  0.63840E+02    0.23750E+00  0.23750E+00 -0.47500E+00  0.00000E+00  0.00000E+00  0.00000E+00    0.14013E+02  0.26900E+02 -0.40913E+02 -0.15527E+01  0.71972E+01  0.27105E+01      982.00
  0.48099E+00  0.64180E+02    0.25000E+00  0.25000E+00 -0.50000E+00  0.00000E+00  0.00000E+00  0.00000E+00    0.14088E+02  0.27047E+02 -0.41135E+02 -0.15040E+01  0.72420E+01  0.26995E+01      982.00
  0.50503E+00  0.64493E+02    0.26250E+00  0.26250E+00 -0.52500E+00  0.00000E+00  0.00000E+00  0.00000E+00    0.14157E+02  0.27182E+02 -0.41339E+02 -0.14553E+01  0.72808E+01  0.26841E+01      982.00
  0.52906E+00  0.64781E+02    0.27500E+00  0.27500E+00 -0.55000E+00  0.00000E+00  0.00000E+00  0.00000E+00    0.14222E+02  0.27307E+02 -0.41529E+02 -0.14067E+01  0.73145E+01  0.26648E+01      982.00
  0.55310E+00  0.65052E+02    0.28750E+00  0.28750E+00 -0.57500E+00  0.00000E+00  0.00000E+00  0.00000E+00    0.14280E+02  0.27427E+02 -0.41706E+02 -0.13474E+01  0.73529E+01  0.26373E+01      982.00
  0.57715E+00  0.65289E+02    0.30000E+00  0.30000E+00 -0.60000E+00  0.00000E+00  0.00000E+00  0.00000E+00    0.14336E+02  0.27528E+02 -0.41865E+02 -0.13095E+01  0.73705E+01  0.26155E+01      982.00
  0.60119E+00  0.65518E+02    0.31250E+00  0.31250E+00 -0.62500E+00  0.00000E+00  0.00000E+00  0.00000E+00    0.14384E+02  0.27632E+02 -0.42016E+02 -0.12521E+01  0.74001E+01  0.25797E+01      982.00
  0.62524E+00  0.65724E+02    0.32500E+00  0.32500E+00 -0.65000E+00  0.00000E+00  0.00000E+00  0.00000E+00    0.14430E+02  0.27724E+02 -0.42154E+02 -0.12043E+01  0.74185E+01  0.25468E+01      982.00
  0.64929E+00  0.65914E+02    0.33750E+00  0.33750E+00 -0.67500E+00  0.00000E+00  0.00000E+00  0.00000E+00    0.14472E+02  0.27810E+02 -0.42282E+02 -0.11579E+01  0.74340E+01  0.25104E+01      982.00
  0.67335E+00  0.66088E+02    0.35000E+00  0.35000E+00 -0.70000E+00  0.00000E+00  0.00000E+00  0.00000E+00    0.14510E+02  0.27890E+02 -0.42400E+02 -0.11123E+01  0.74475E+01  0.24711E+01      982.00
  0.69741E+00  0.66249E+02    0.36250E+00  0.36250E+00 -0.72500E+00  0.00000E+00  0.00000E+00  0.00000E+00    0.14544E+02  0.27965E+02 -0.42509E+02 -0.10672E+01  0.74594E+01  0.24292E+01      982.00
  0.72147E+00  0.66379E+02    0.37500E+00  0.37500E+00 -0.75000E+00  0.00000E+00  0.00000E+00  0.00000E+00    0.14576E+02  0.28023E+02 -0.42599E+02 -0.10364E+01  0.74615E+01  0.23978E+01      982.00
  0.74553E+00  0.66509E+02    0.38750E+00  0.38750E+00 -0.77500E+00  0.00000E+00  0.00000E+00  0.00000E+00    0.14598E+02  0.28089E+02 -0.42686E+02 -0.98769E+00  0.74781E+01  0.23475E+01      982.00
  0.76960E+00  0.66646E+02    0.40000E+00  0.40000E+00 -0.80000E+00  0.00000E+00  0.00000E+00  0.00000E+00    0.14628E+02  0.28153E+02 -0.42781E+02 -0.94909E+00  0.74819E+01  0.23026E+01      982.00
  0.79367E+00  0.66764E+02    0.41250E+00  0.41250E+00 -0.82500E+00  0.00000E+00  0.00000E+00  0.00000E+00    0.14650E+02  0.28211E+02 -0.42861E+02 -0.90689E+00  0.74903E+01  0.22518E+01      982.00
  0.81775E+00  0.66873E+02    0.42500E+00  0.42500E+00 -0.85000E+00  0.00000E+00  0.00000E+00  0.00000E+00    0.14669E+02  0.28267E+02 -0.42936E+02 -0.86450E+00  0.74986E+01  0.21991E+01      982.00
  0.84182E+00  0.66900E+02    0.43750E+00  0.43750E+00 -0.87500E+00  0.00000E+00  0.00000E+00  0.00000E+00    0.14675E+02  0.28295E+02 -0.42970E+02 -0.82754E+00  0.74447E+01  0.21344E+01      982.00
  0.86591E+00  0.66921E+02    0.45000E+00  0.45000E+00 -0.90000E+00  0.00000E+00  0.00000E+00  0.00000E+00    0.14678E+02  0.28317E+02 -0.42996E+02 -0.78671E+00  0.74089E+01  0.20773E+01      982.00
  0.89000E+00  0.66941E+02    0.46250E+00  0.46250E+00 -0.92500E+00  0.00000E+00  0.00000E+00  0.00000E+00    0.14681E+02  0.28339E+02 -0.43020E+02 -0.74561E+00  0.73762E+01  0.20196E+01      982.00
  0.91410E+00  0.66959E+02    0.47500E+00  0.47500E+00 -0.95000E+00  0.00000E+00  0.00000E+00  0.00000E+00    0.14682E+02  0.28359E+02 -0.43042E+02 -0.70526E+00  0.73454E+01  0.19611E+01      982.00
  0.93821E+00  0.66975E+02    0.48750E+00  0.48750E+00 -0.97500E+00  0.00000E+00  0.00000E+00  0.00000E+00    0.14683E+02  0.28379E+02 -0.43062E+02 -0.66570E+00  0.73164E+01  0.19016E+01      982.00
  0.96232E+00  0.66990E+02    0.50000E+00  0.50000E+00 -0.10000E+01  0.00000E+00  0.00000E+00  0.00000E+00    0.14683E+02  0.28398E+02 -0.43081E+02 -0.62689E+00  0.72891E+01  0.18414E+01      982.00
