          Evm          Svm            E11          E22          E33          E23          E13          E12         SDEV11       SDEV22       SDEV33       SDEV23       SDEV13       SDEV12      TEMP
  0.00000E+00  0.64124E+02    0.00000E+00  0.00000E+00  0.00000E+00  0.00000E+00  0.00000E+00  0.00000E+00    0.13438E+02  0.27290E+02 -0.40728E+02  0.15385E+01 -0.75344E+01 -0.44088E+01      982.00
  0.23818E-01  0.64007E+02    0.12500E-01  0.12500E-01 -0.25000E-01  0.00000E+00  0.00000E+00  0.00000E+00    0.13248E+02  0.27411E+02 -0.40659E+02  0.16052E+01 -0.73675E+01 -0.43297E+01      982.00
  0.47639E-01  0.63964E+02    0.25000E-01  0.25000E-01 -0.50000E-01  0.00000E+00  0.00000E+00  0.00000E+00    0.13055E+02  0.27574E+02 -0.40630E+02  0.16671E+01 -0.72184E+01 -0.42607E+01      982.00
  0.71459E-01  0.63996E+02    0.37500E-01  0.37500E-01 -0.75000E-01  0.00000E+00  0.00000E+00  0.00000E+00    0.12862E+02  0.27778E+02 -0.40640E+02  0.17156E+01 -0.70857E+01 -0.42034E+01      982.00
  0.95273E-01  0.64102E+02    0.50000E-01  0.50000E-01 -0.10000E+00  0.00000E+00  0.00000E+00  0.00000E+00    0.12681E+02  0.28013E+02 -0.40693E+02  0.17481E+01 -0.69723E+01 -0.41595E+01      982.00
  0.11908E+00  0.64282E+02    0.62500E-01  0.62500E-01 -0.12500E+00  0.00000E+00  0.00000E+00  0.00000E+00    0.12515E+02  0.28274E+02 -0.40789E+02  0.17607E+01 -0.68781E+01 -0.41312E+01      982.00
  0.14287E+00  0.64526E+02    0.75000E-01  0.75000E-01 -0.15000E+00  0.00000E+00  0.00000E+00  0.00000E+00    0.12376E+02  0.28548E+02 -0.40924E+02  0.17540E+01 -0.68077E+01 -0.41200E+01      982.00
  0.16666E+00  0.64822E+02    0.87500E-01  0.87500E-01 -0.17500E+00  0.00000E+00  0.00000E+00  0.00000E+00    0.12261E+02  0.28831E+02 -0.41093E+02  0.17322E+01 -0.67475E+01 -0.41244E+01      982.00
  0.19043E+00  0.65165E+02    0.10000E+00  0.10000E+00 -0.20000E+00  0.00000E+00  0.00000E+00  0.00000E+00    0.12178E+02  0.29113E+02 -0.41291E+02  0.16871E+01 -0.67133E+01 -0.41446E+01      982.00
  0.21419E+00  0.65534E+02    0.11250E+00  0.11250E+00 -0.22500E+00  0.00000E+00  0.00000E+00  0.00000E+00    0.12115E+02  0.29393E+02 -0.41507E+02  0.16272E+01 -0.66830E+01 -0.41797E+01      982.00
  0.23794E+00  0.65928E+02    0.12500E+00  0.12500E+00 -0.25000E+00  0.00000E+00  0.00000E+00  0.00000E+00    0.12081E+02  0.29662E+02 -0.41743E+02  0.15506E+01 -0.66705E+01 -0.42243E+01      982.00
  0.26169E+00  0.66308E+02    0.13750E+00  0.13750E+00 -0.27500E+00  0.00000E+00  0.00000E+00  0.00000E+00    0.12067E+02  0.29905E+02 -0.41972E+02  0.14664E+01 -0.66605E+01 -0.42740E+01      982.00
  0.28542E+00  0.66709E+02    0.15000E+00  0.15000E+00 -0.30000E+00  0.00000E+00  0.00000E+00  0.00000E+00    0.12062E+02  0.30154E+02 -0.42215E+02  0.13597E+01 -0.66498E+01 -0.43413E+01      982.00
  0.30915E+00  0.67110E+02    0.16250E+00  0.16250E+00 -0.32500E+00  0.00000E+00  0.00000E+00  0.00000E+00    0.12074E+02  0.30389E+02 -0.42463E+02  0.12496E+01 -0.66389E+01 -0.44074E+01      982.00
  0.33288E+00  0.67505E+02    0.17500E+00  0.17500E+00 -0.35000E+00  0.00000E+00  0.00000E+00  0.00000E+00    0.12097E+02  0.30613E+02 -0.42710E+02  0.11327E+01 -0.66194E+01 -0.44773E+01      982.00
  0.35661E+00  0.67886E+02    0.18750E+00  0.18750E+00 -0.37500E+00  0.00000E+00  0.00000E+00  0.00000E+00    0.12125E+02  0.30825E+02 -0.42950E+02  0.10020E+01 -0.65950E+01 -0.45528E+01      982.00
  0.38033E+00  0.68279E+02    0.20000E+00  0.20000E+00 -0.40000E+00  0.00000E+00  0.00000E+00  0.00000E+00    0.12163E+02  0.31037E+02 -0.43200E+02  0.86705E+00 -0.65662E+01 -0.46259E+01      982.00
  0.40406E+00  0.68645E+02    0.21250E+00  0.21250E+00 -0.42500E+00  0.00000E+00  0.00000E+00  0.00000E+00    0.12203E+02  0.31231E+02 -0.43435E+02  0.72187E+00 -0.65274E+01 -0.47035E+01      982.00
  0.42779E+00  0.69004E+02    0.22500E+00  0.22500E+00 -0.45000E+00  0.00000E+00  0.00000E+00  0.00000E+00    0.12248E+02  0.31420E+02 -0.43667E+02  0.58245E+00 -0.64838E+01 -0.47769E+01      982.00
  0.45152E+00  0.69328E+02    0.23750E+00  0.23750E+00 -0.47500E+00  0.00000E+00  0.00000E+00  0.00000E+00    0.12293E+02  0.31586E+02 -0.43879E+02  0.46289E+00 -0.64364E+01 -0.48351E+01      982.00
  0.47525E+00  0.69624E+02    0.25000E+00  0.25000E+00 -0.50000E+00  0.00000E+00  0.00000E+00  0.00000E+00    0.12350E+02  0.31733E+02 -0.44083E+02  0.40265E+00 -0.63872E+01 -0.48430E+01      982.00
  0.49900E+00  0.69841E+02    0.26250E+00  0.26250E+00 -0.52500E+00  0.00000E+00  0.00000E+00  0.00000E+00    0.12416E+02  0.31832E+02 -0.44249E+02  0.36565E+00 -0.63256E+01 -0.48018E+01      982.00
  0.52275E+00  0.69963E+02    0.27500E+00  0.27500E+00 -0.55000E+00  0.00000E+00  0.00000E+00  0.00000E+00    0.12480E+02  0.31886E+02 -0.44365E+02  0.28564E+00 -0.62191E+01 -0.47411E+01      982.00
  0.54653E+00  0.70048E+02    0.28750E+00  0.28750E+00 -0.57500E+00  0.00000E+00  0.00000E+00  0.00000E+00    0.12532E+02  0.31930E+02 -0.44461E+02  0.14993E+00 -0.60741E+01 -0.46898E+01      982.00
  0.57034E+00  0.70128E+02    0.30000E+00  0.30000E+00 -0.60000E+00  0.00000E+00  0.00000E+00  0.00000E+00    0.12583E+02  0.31969E+02 -0.44552E+02 -0.21798E-01 -0.59232E+01 -0.46517E+01      982.00
  0.59416E+00  0.70206E+02    0.31250E+00  0.31250E+00 -0.62500E+00  0.00000E+00  0.00000E+00  0.00000E+00    0.12634E+02  0.32005E+02 -0.44638E+02 -0.20862E+00 -0.57757E+01 -0.46173E+01      982.00
  0.61800E+00  0.70290E+02    0.32500E+00  0.32500E+00 -0.65000E+00  0.00000E+00  0.00000E+00  0.00000E+00    0.12675E+02  0.32048E+02 -0.44722E+02 -0.40030E+00 -0.56321E+01 -0.45995E+01      982.00
  0.64186E+00  0.70379E+02    0.33750E+00  0.33750E+00 -0.67500E+00  0.00000E+00  0.00000E+00  0.00000E+00    0.12710E+02  0.32092E+02 -0.44803E+02 -0.58168E+00 -0.55014E+01 -0.45886E+01      982.00
  0.66574E+00  0.70471E+02    0.35000E+00  0.35000E+00 -0.70000E+00  0.00000E+00  0.00000E+00  0.00000E+00    0.12738E+02  0.32142E+02 -0.44880E+02 -0.74898E+00 -0.53822E+01 -0.45891E+01      982.00
  0.68962E+00  0.70561E+02    0.36250E+00  0.36250E+00 -0.72500E+00  0.00000E+00  0.00000E+00  0.00000E+00    0.12766E+02  0.32188E+02 -0.44954E+02 -0.89335E+00 -0.52813E+01 -0.45858E+01      982.00
  0.71351E+00  0.70653E+02    0.37500E+00  0.37500E+00 -0.75000E+00  0.00000E+00  0.00000E+00  0.00000E+00    0.12785E+02  0.32237E+02 -0.45022E+02 -0.10222E+01 -0.51900E+01 -0.45929E+01      982.00
  0.73740E+00  0.70739E+02    0.38750E+00  0.38750E+00 -0.77500E+00  0.00000E+00  0.00000E+00  0.00000E+00    0.12805E+02  0.32282E+02 -0.45087E+02 -0.11277E+01 -0.51146E+01 -0.45929E+01      982.00
  0.76131E+00  0.70819E+02    0.40000E+00  0.40000E+00 -0.80000E+00  0.00000E+00  0.00000E+00  0.00000E+00    0.12827E+02  0.32320E+02 -0.45147E+02 -0.12118E+01 -0.50557E+01 -0.45905E+01      982.00
  0.78521E+00  0.70895E+02    0.41250E+00  0.41250E+00 -0.82500E+00  0.00000E+00  0.00000E+00  0.00000E+00    0.12842E+02  0.32359E+02 -0.45201E+02 -0.12904E+01 -0.49991E+01 -0.45955E+01      982.00
  0.80912E+00  0.70968E+02    0.42500E+00  0.42500E+00 -0.85000E+00  0.00000E+00  0.00000E+00  0.00000E+00    0.12849E+02  0.32402E+02 -0.45251E+02 -0.13613E+01 -0.49449E+01 -0.46092E+01      982.00
  0.83303E+00  0.71036E+02    0.43750E+00  0.43750E+00 -0.87500E+00  0.00000E+00  0.00000E+00  0.00000E+00    0.12860E+02  0.32437E+02 -0.45297E+02 -0.14200E+01 -0.49003E+01 -0.46182E+01      982.00
  0.85694E+00  0.71098E+02    0.45000E+00  0.45000E+00 -0.90000E+00  0.00000E+00  0.00000E+00  0.00000E+00    0.12870E+02  0.32469E+02 -0.45339E+02 -0.14718E+01 -0.48604E+01 -0.46300E+01      982.00
  0.88086E+00  0.71091E+02    0.46250E+00  0.46250E+00 -0.92500E+00  0.00000E+00  0.00000E+00  0.00000E+00    0.12872E+02  0.32469E+02 -0.45341E+02 -0.15025E+01 -0.48059E+01 -0.46307E+01      982.00
  0.90477E+00  0.71086E+02    0.47500E+00  0.47500E+00 -0.95000E+00  0.00000E+00  0.00000E+00  0.00000E+00    0.12870E+02  0.32472E+02 -0.45341E+02 -0.15397E+01 -0.47526E+01 -0.46402E+01      982.00
  0.92869E+00  0.71081E+02    0.48750E+00  0.48750E+00 -0.97500E+00  0.00000E+00  0.00000E+00  0.00000E+00    0.12868E+02  0.32473E+02 -0.45341E+02 -0.15750E+01 -0.47019E+01 -0.46532E+01      982.00
  0.95261E+00  0.71076E+02    0.50000E+00  0.50000E+00 -0.10000E+01  0.00000E+00  0.00000E+00  0.00000E+00    0.12866E+02  0.32474E+02 -0.45339E+02 -0.16088E+01 -0.46532E+01 -0.46696E+01      982.00
