          Evm          Svm            E11          E22          E33          E23          E13          E12         SDEV11       SDEV22       SDEV33       SDEV23       SDEV13       SDEV12      TEMP
  0.00000E+00  0.54492E+02    0.00000E+00  0.00000E+00  0.00000E+00  0.00000E+00  0.00000E+00  0.00000E+00    0.19601E+02  0.13435E+02 -0.33036E+02 -0.19031E+01  0.49215E+01  0.11573E+02      982.00
  0.22734E-01  0.54414E+02    0.12500E-01  0.12500E-01 -0.25000E-01  0.00000E+00  0.00000E+00  0.00000E+00    0.19409E+02  0.13635E+02 -0.33044E+02 -0.20695E+01  0.45029E+01  0.11624E+02      982.00
  0.45507E-01  0.54405E+02    0.25000E-01  0.25000E-01 -0.50000E-01  0.00000E+00  0.00000E+00  0.00000E+00    0.19209E+02  0.13866E+02 -0.33075E+02 -0.22158E+01  0.41099E+01  0.11715E+02      982.00
  0.68305E-01  0.54495E+02    0.37500E-01  0.37500E-01 -0.75000E-01  0.00000E+00  0.00000E+00  0.00000E+00    0.19042E+02  0.14097E+02 -0.33139E+02 -0.23377E+01  0.37604E+01  0.11855E+02      982.00
  0.91109E-01  0.54701E+02    0.50000E-01  0.50000E-01 -0.10000E+00  0.00000E+00  0.00000E+00  0.00000E+00    0.18956E+02  0.14291E+02 -0.33247E+02 -0.24356E+01  0.34662E+01  0.12041E+02      982.00
  0.11390E+00  0.55029E+02    0.62500E-01  0.62500E-01 -0.12500E+00  0.00000E+00  0.00000E+00  0.00000E+00    0.18952E+02  0.14451E+02 -0.33404E+02 -0.25187E+01  0.32199E+01  0.12279E+02      982.00
  0.13666E+00  0.55449E+02    0.75000E-01  0.75000E-01 -0.15000E+00  0.00000E+00  0.00000E+00  0.00000E+00    0.19020E+02  0.14581E+02 -0.33601E+02 -0.25856E+01  0.30165E+01  0.12544E+02      982.00
  0.15939E+00  0.55923E+02    0.87500E-01  0.87500E-01 -0.17500E+00  0.00000E+00  0.00000E+00  0.00000E+00    0.19135E+02  0.14690E+02 -0.33824E+02 -0.26389E+01  0.28447E+01  0.12821E+02      982.00
  0.18207E+00  0.56420E+02    0.10000E+00  0.10000E+00 -0.20000E+00  0.00000E+00  0.00000E+00  0.00000E+00    0.19275E+02  0.14783E+02 -0.34057E+02 -0.26822E+01  0.26978E+01  0.13101E+02      982.00
  0.20471E+00  0.56941E+02    0.11250E+00  0.11250E+00 -0.22500E+00  0.00000E+00  0.00000E+00  0.00000E+00    0.19433E+02  0.14870E+02 -0.34303E+02 -0.27123E+01  0.25908E+01  0.13379E+02      982.00
  0.22730E+00  0.57464E+02    0.12500E+00  0.12500E+00 -0.25000E+00  0.00000E+00  0.00000E+00  0.00000E+00    0.19594E+02  0.14956E+02 -0.34550E+02 -0.27317E+01  0.25097E+01  0.13649E+02      982.00
  0.24984E+00  0.57961E+02    0.13750E+00  0.13750E+00 -0.27500E+00  0.00000E+00  0.00000E+00  0.00000E+00    0.19746E+02  0.15038E+02 -0.34784E+02 -0.27445E+01  0.24363E+01  0.13906E+02      982.00
  0.27235E+00  0.58455E+02    0.15000E+00  0.15000E+00 -0.30000E+00  0.00000E+00  0.00000E+00  0.00000E+00    0.19893E+02  0.15128E+02 -0.35020E+02 -0.27429E+01  0.23993E+01  0.14151E+02      982.00
  0.29482E+00  0.58927E+02    0.16250E+00  0.16250E+00 -0.32500E+00  0.00000E+00  0.00000E+00  0.00000E+00    0.20027E+02  0.15220E+02 -0.35247E+02 -0.27317E+01  0.23795E+01  0.14382E+02      982.00
  0.31725E+00  0.59376E+02    0.17500E+00  0.17500E+00 -0.35000E+00  0.00000E+00  0.00000E+00  0.00000E+00    0.20147E+02  0.15315E+02 -0.35462E+02 -0.27119E+01  0.23743E+01  0.14600E+02      982.00
  0.33964E+00  0.59800E+02    0.18750E+00  0.18750E+00 -0.37500E+00  0.00000E+00  0.00000E+00  0.00000E+00    0.20252E+02  0.15413E+02 -0.35665E+02 -0.26844E+01  0.23814E+01  0.14807E+02      982.00
  0.36201E+00  0.60200E+02    0.20000E+00  0.20000E+00 -0.40000E+00  0.00000E+00  0.00000E+00  0.00000E+00    0.20343E+02  0.15514E+02 -0.35856E+02 -0.26501E+01  0.23984E+01  0.15005E+02      982.00
  0.38434E+00  0.60576E+02    0.21250E+00  0.21250E+00 -0.42500E+00  0.00000E+00  0.00000E+00  0.00000E+00    0.20417E+02  0.15617E+02 -0.36034E+02 -0.26103E+01  0.24232E+01  0.15194E+02      982.00
  0.40665E+00  0.60931E+02    0.22500E+00  0.22500E+00 -0.45000E+00  0.00000E+00  0.00000E+00  0.00000E+00    0.20477E+02  0.15723E+02 -0.36200E+02 -0.25665E+01  0.24536E+01  0.15376E+02      982.00
  0.42893E+00  0.61265E+02    0.23750E+00  0.23750E+00 -0.47500E+00  0.00000E+00  0.00000E+00  0.00000E+00    0.20522E+02  0.15832E+02 -0.36354E+02 -0.25201E+01  0.24874E+01  0.15552E+02      982.00
  0.45118E+00  0.61580E+02    0.25000E+00  0.25000E+00 -0.50000E+00  0.00000E+00  0.00000E+00  0.00000E+00    0.20553E+02  0.15944E+02 -0.36496E+02 -0.24730E+01  0.25224E+01  0.15724E+02      982.00
  0.47341E+00  0.61884E+02    0.26250E+00  0.26250E+00 -0.52500E+00  0.00000E+00  0.00000E+00  0.00000E+00    0.20572E+02  0.16058E+02 -0.36631E+02 -0.24265E+01  0.25577E+01  0.15895E+02      982.00
  0.49561E+00  0.62154E+02    0.27500E+00  0.27500E+00 -0.55000E+00  0.00000E+00  0.00000E+00  0.00000E+00    0.20570E+02  0.16177E+02 -0.36747E+02 -0.23843E+01  0.25853E+01  0.16055E+02      982.00
  0.51778E+00  0.62419E+02    0.28750E+00  0.28750E+00 -0.57500E+00  0.00000E+00  0.00000E+00  0.00000E+00    0.20557E+02  0.16300E+02 -0.36857E+02 -0.23471E+01  0.26087E+01  0.16218E+02      982.00
  0.53992E+00  0.62668E+02    0.30000E+00  0.30000E+00 -0.60000E+00  0.00000E+00  0.00000E+00  0.00000E+00    0.20531E+02  0.16427E+02 -0.36958E+02 -0.23171E+01  0.26234E+01  0.16377E+02      982.00
  0.56203E+00  0.62899E+02    0.31250E+00  0.31250E+00 -0.62500E+00  0.00000E+00  0.00000E+00  0.00000E+00    0.20495E+02  0.16554E+02 -0.37050E+02 -0.22945E+01  0.26303E+01  0.16529E+02      982.00
  0.58412E+00  0.63122E+02    0.32500E+00  0.32500E+00 -0.65000E+00  0.00000E+00  0.00000E+00  0.00000E+00    0.20445E+02  0.16690E+02 -0.37134E+02 -0.22829E+01  0.26228E+01  0.16682E+02      982.00
  0.60618E+00  0.63332E+02    0.33750E+00  0.33750E+00 -0.67500E+00  0.00000E+00  0.00000E+00  0.00000E+00    0.20384E+02  0.16828E+02 -0.37212E+02 -0.22813E+01  0.26026E+01  0.16831E+02      982.00
  0.62822E+00  0.63529E+02    0.35000E+00  0.35000E+00 -0.70000E+00  0.00000E+00  0.00000E+00  0.00000E+00    0.20314E+02  0.16970E+02 -0.37283E+02 -0.22886E+01  0.25705E+01  0.16975E+02      982.00
  0.65023E+00  0.63732E+02    0.36250E+00  0.36250E+00 -0.72500E+00  0.00000E+00  0.00000E+00  0.00000E+00    0.20246E+02  0.17110E+02 -0.37356E+02 -0.22999E+01  0.25338E+01  0.17122E+02      982.00
  0.67221E+00  0.63894E+02    0.37500E+00  0.37500E+00 -0.75000E+00  0.00000E+00  0.00000E+00  0.00000E+00    0.20168E+02  0.17245E+02 -0.37414E+02 -0.23133E+01  0.24908E+01  0.17242E+02      982.00
  0.69416E+00  0.64075E+02    0.38750E+00  0.38750E+00 -0.77500E+00  0.00000E+00  0.00000E+00  0.00000E+00    0.20093E+02  0.17386E+02 -0.37479E+02 -0.23326E+01  0.24427E+01  0.17372E+02      982.00
  0.71610E+00  0.64221E+02    0.40000E+00  0.40000E+00 -0.80000E+00  0.00000E+00  0.00000E+00  0.00000E+00    0.20011E+02  0.17521E+02 -0.37532E+02 -0.23532E+01  0.23883E+01  0.17479E+02      982.00
  0.73801E+00  0.64357E+02    0.41250E+00  0.41250E+00 -0.82500E+00  0.00000E+00  0.00000E+00  0.00000E+00    0.19931E+02  0.17650E+02 -0.37582E+02 -0.23724E+01  0.23340E+01  0.17577E+02      982.00
  0.75991E+00  0.64483E+02    0.42500E+00  0.42500E+00 -0.85000E+00  0.00000E+00  0.00000E+00  0.00000E+00    0.19856E+02  0.17773E+02 -0.37629E+02 -0.23887E+01  0.22817E+01  0.17665E+02      982.00
  0.78180E+00  0.64601E+02    0.43750E+00  0.43750E+00 -0.87500E+00  0.00000E+00  0.00000E+00  0.00000E+00    0.19787E+02  0.17889E+02 -0.37675E+02 -0.24014E+01  0.22327E+01  0.17745E+02      982.00
  0.80367E+00  0.64722E+02    0.45000E+00  0.45000E+00 -0.90000E+00  0.00000E+00  0.00000E+00  0.00000E+00    0.19727E+02  0.17998E+02 -0.37725E+02 -0.24136E+01  0.21832E+01  0.17822E+02      982.00
  0.82552E+00  0.64825E+02    0.46250E+00  0.46250E+00 -0.92500E+00  0.00000E+00  0.00000E+00  0.00000E+00    0.19669E+02  0.18098E+02 -0.37768E+02 -0.24183E+01  0.21419E+01  0.17886E+02      982.00
  0.84737E+00  0.64918E+02    0.47500E+00  0.47500E+00 -0.95000E+00  0.00000E+00  0.00000E+00  0.00000E+00    0.19618E+02  0.18191E+02 -0.37809E+02 -0.24190E+01  0.21051E+01  0.17941E+02      982.00
  0.86921E+00  0.64956E+02    0.48750E+00  0.48750E+00 -0.97500E+00  0.00000E+00  0.00000E+00  0.00000E+00    0.19565E+02  0.18258E+02 -0.37823E+02 -0.24104E+01  0.20617E+01  0.17972E+02      982.00
  0.89105E+00  0.64987E+02    0.50000E+00  0.50000E+00 -0.10000E+01  0.00000E+00  0.00000E+00  0.00000E+00    0.19516E+02  0.18320E+02 -0.37837E+02 -0.23987E+01  0.20204E+01  0.17996E+02      982.00
