          Evm          Svm            E11          E22          E33          E23          E13          E12         SDEV11       SDEV22       SDEV33       SDEV23       SDEV13       SDEV12      TEMP
  0.00000E+00  0.61223E+02    0.00000E+00  0.00000E+00  0.00000E+00  0.00000E+00  0.00000E+00  0.00000E+00    0.21348E+02  0.16688E+02 -0.38036E+02  0.59154E+01  0.53969E+01 -0.97387E+01      982.00
  0.23297E-01  0.61218E+02    0.12500E-01  0.12500E-01 -0.25000E-01  0.00000E+00  0.00000E+00  0.00000E+00    0.21326E+02  0.16818E+02 -0.38144E+02  0.56756E+01  0.54941E+01 -0.95144E+01      982.00
  0.46663E-01  0.61270E+02    0.25000E-01  0.25000E-01 -0.50000E-01  0.00000E+00  0.00000E+00  0.00000E+00    0.21312E+02  0.16955E+02 -0.38268E+02  0.54955E+01  0.55783E+01 -0.93250E+01      982.00
  0.70084E-01  0.61384E+02    0.37500E-01  0.37500E-01 -0.75000E-01  0.00000E+00  0.00000E+00  0.00000E+00    0.21327E+02  0.17085E+02 -0.38412E+02  0.53598E+01  0.56482E+01 -0.91791E+01      982.00
  0.93551E-01  0.61549E+02    0.50000E-01  0.50000E-01 -0.10000E+00  0.00000E+00  0.00000E+00  0.00000E+00    0.21372E+02  0.17203E+02 -0.38575E+02  0.52468E+01  0.57017E+01 -0.90762E+01      982.00
  0.11705E+00  0.61769E+02    0.62500E-01  0.62500E-01 -0.12500E+00  0.00000E+00  0.00000E+00  0.00000E+00    0.21450E+02  0.17310E+02 -0.38760E+02  0.51591E+01  0.57289E+01 -0.90173E+01      982.00
  0.14058E+00  0.62031E+02    0.75000E-01  0.75000E-01 -0.15000E+00  0.00000E+00  0.00000E+00  0.00000E+00    0.21557E+02  0.17408E+02 -0.38965E+02  0.50852E+01  0.57357E+01 -0.89927E+01      982.00
  0.16414E+00  0.62332E+02    0.87500E-01  0.87500E-01 -0.17500E+00  0.00000E+00  0.00000E+00  0.00000E+00    0.21689E+02  0.17498E+02 -0.39188E+02  0.50216E+01  0.57260E+01 -0.89964E+01      982.00
  0.18772E+00  0.62665E+02    0.10000E+00  0.10000E+00 -0.20000E+00  0.00000E+00  0.00000E+00  0.00000E+00    0.21842E+02  0.17585E+02 -0.39427E+02  0.49666E+01  0.57031E+01 -0.90222E+01      982.00
  0.21131E+00  0.63025E+02    0.11250E+00  0.11250E+00 -0.22500E+00  0.00000E+00  0.00000E+00  0.00000E+00    0.22010E+02  0.17670E+02 -0.39679E+02  0.49190E+01  0.56703E+01 -0.90639E+01      982.00
  0.23492E+00  0.63404E+02    0.12500E+00  0.12500E+00 -0.25000E+00  0.00000E+00  0.00000E+00  0.00000E+00    0.22187E+02  0.17755E+02 -0.39942E+02  0.48782E+01  0.56301E+01 -0.91160E+01      982.00
  0.25854E+00  0.63796E+02    0.13750E+00  0.13750E+00 -0.27500E+00  0.00000E+00  0.00000E+00  0.00000E+00    0.22371E+02  0.17840E+02 -0.40211E+02  0.48440E+01  0.55857E+01 -0.91747E+01      982.00
  0.28218E+00  0.64194E+02    0.15000E+00  0.15000E+00 -0.30000E+00  0.00000E+00  0.00000E+00  0.00000E+00    0.22555E+02  0.17929E+02 -0.40483E+02  0.48144E+01  0.55369E+01 -0.92342E+01      982.00
  0.30583E+00  0.64597E+02    0.16250E+00  0.16250E+00 -0.32500E+00  0.00000E+00  0.00000E+00  0.00000E+00    0.22745E+02  0.18014E+02 -0.40759E+02  0.47865E+01  0.54847E+01 -0.92947E+01      982.00
  0.32949E+00  0.64987E+02    0.17500E+00  0.17500E+00 -0.35000E+00  0.00000E+00  0.00000E+00  0.00000E+00    0.22921E+02  0.18105E+02 -0.41026E+02  0.47652E+01  0.54322E+01 -0.93486E+01      982.00
  0.35316E+00  0.65380E+02    0.18750E+00  0.18750E+00 -0.37500E+00  0.00000E+00  0.00000E+00  0.00000E+00    0.23101E+02  0.18195E+02 -0.41296E+02  0.47450E+01  0.53753E+01 -0.94008E+01      982.00
  0.37685E+00  0.65742E+02    0.20000E+00  0.20000E+00 -0.40000E+00  0.00000E+00  0.00000E+00  0.00000E+00    0.23260E+02  0.18287E+02 -0.41547E+02  0.47294E+01  0.53217E+01 -0.94428E+01      982.00
  0.40055E+00  0.66104E+02    0.21250E+00  0.21250E+00 -0.42500E+00  0.00000E+00  0.00000E+00  0.00000E+00    0.23419E+02  0.18380E+02 -0.41799E+02  0.47159E+01  0.52636E+01 -0.94808E+01      982.00
  0.42426E+00  0.66427E+02    0.22500E+00  0.22500E+00 -0.45000E+00  0.00000E+00  0.00000E+00  0.00000E+00    0.23558E+02  0.18469E+02 -0.42026E+02  0.47039E+01  0.52106E+01 -0.95099E+01      982.00
  0.44799E+00  0.66744E+02    0.23750E+00  0.23750E+00 -0.47500E+00  0.00000E+00  0.00000E+00  0.00000E+00    0.23690E+02  0.18558E+02 -0.42248E+02  0.46964E+01  0.51625E+01 -0.95359E+01      982.00
  0.47172E+00  0.67027E+02    0.25000E+00  0.25000E+00 -0.50000E+00  0.00000E+00  0.00000E+00  0.00000E+00    0.23808E+02  0.18641E+02 -0.42450E+02  0.46863E+01  0.51129E+01 -0.95543E+01      982.00
  0.49547E+00  0.67292E+02    0.26250E+00  0.26250E+00 -0.52500E+00  0.00000E+00  0.00000E+00  0.00000E+00    0.23919E+02  0.18720E+02 -0.42639E+02  0.46769E+01  0.50645E+01 -0.95684E+01      982.00
  0.51923E+00  0.67538E+02    0.27500E+00  0.27500E+00 -0.55000E+00  0.00000E+00  0.00000E+00  0.00000E+00    0.24022E+02  0.18795E+02 -0.42816E+02  0.46678E+01  0.50175E+01 -0.95787E+01      982.00
  0.54301E+00  0.67767E+02    0.28750E+00  0.28750E+00 -0.57500E+00  0.00000E+00  0.00000E+00  0.00000E+00    0.24117E+02  0.18864E+02 -0.42982E+02  0.46589E+01  0.49719E+01 -0.95857E+01      982.00
  0.56679E+00  0.67981E+02    0.30000E+00  0.30000E+00 -0.60000E+00  0.00000E+00  0.00000E+00  0.00000E+00    0.24208E+02  0.18929E+02 -0.43137E+02  0.46507E+01  0.49278E+01 -0.95909E+01      982.00
  0.59059E+00  0.68177E+02    0.31250E+00  0.31250E+00 -0.62500E+00  0.00000E+00  0.00000E+00  0.00000E+00    0.24292E+02  0.18989E+02 -0.43281E+02  0.46421E+01  0.48845E+01 -0.95925E+01      982.00
  0.61439E+00  0.68359E+02    0.32500E+00  0.32500E+00 -0.65000E+00  0.00000E+00  0.00000E+00  0.00000E+00    0.24370E+02  0.19045E+02 -0.43415E+02  0.46336E+01  0.48424E+01 -0.95922E+01      982.00
  0.63821E+00  0.68527E+02    0.33750E+00  0.33750E+00 -0.67500E+00  0.00000E+00  0.00000E+00  0.00000E+00    0.24444E+02  0.19095E+02 -0.43539E+02  0.46253E+01  0.48013E+01 -0.95903E+01      982.00
  0.66204E+00  0.68682E+02    0.35000E+00  0.35000E+00 -0.70000E+00  0.00000E+00  0.00000E+00  0.00000E+00    0.24513E+02  0.19142E+02 -0.43655E+02  0.46172E+01  0.47611E+01 -0.95872E+01      982.00
  0.68587E+00  0.68829E+02    0.36250E+00  0.36250E+00 -0.72500E+00  0.00000E+00  0.00000E+00  0.00000E+00    0.24579E+02  0.19185E+02 -0.43764E+02  0.46119E+01  0.47247E+01 -0.95835E+01      982.00
  0.70971E+00  0.68962E+02    0.37500E+00  0.37500E+00 -0.75000E+00  0.00000E+00  0.00000E+00  0.00000E+00    0.24641E+02  0.19222E+02 -0.43863E+02  0.46044E+01  0.46862E+01 -0.95787E+01      982.00
  0.73357E+00  0.69070E+02    0.38750E+00  0.38750E+00 -0.77500E+00  0.00000E+00  0.00000E+00  0.00000E+00    0.24692E+02  0.19250E+02 -0.43942E+02  0.46016E+01  0.46578E+01 -0.95787E+01      982.00
  0.75742E+00  0.69185E+02    0.40000E+00  0.40000E+00 -0.80000E+00  0.00000E+00  0.00000E+00  0.00000E+00    0.24749E+02  0.19280E+02 -0.44029E+02  0.45937E+01  0.46206E+01 -0.95728E+01      982.00
  0.78129E+00  0.69290E+02    0.41250E+00  0.41250E+00 -0.82500E+00  0.00000E+00  0.00000E+00  0.00000E+00    0.24803E+02  0.19306E+02 -0.44110E+02  0.45865E+01  0.45836E+01 -0.95665E+01      982.00
  0.80516E+00  0.69388E+02    0.42500E+00  0.42500E+00 -0.85000E+00  0.00000E+00  0.00000E+00  0.00000E+00    0.24856E+02  0.19329E+02 -0.44184E+02  0.45797E+01  0.45471E+01 -0.95601E+01      982.00
  0.82904E+00  0.69478E+02    0.43750E+00  0.43750E+00 -0.87500E+00  0.00000E+00  0.00000E+00  0.00000E+00    0.24906E+02  0.19347E+02 -0.44254E+02  0.45733E+01  0.45112E+01 -0.95536E+01      982.00
  0.85293E+00  0.69492E+02    0.45000E+00  0.45000E+00 -0.90000E+00  0.00000E+00  0.00000E+00  0.00000E+00    0.24934E+02  0.19343E+02 -0.44277E+02  0.45399E+01  0.44656E+01 -0.95403E+01      982.00
  0.87682E+00  0.69508E+02    0.46250E+00  0.46250E+00 -0.92500E+00  0.00000E+00  0.00000E+00  0.00000E+00    0.24962E+02  0.19340E+02 -0.44302E+02  0.45142E+01  0.44154E+01 -0.95208E+01      982.00
  0.90072E+00  0.69522E+02    0.47500E+00  0.47500E+00 -0.95000E+00  0.00000E+00  0.00000E+00  0.00000E+00    0.24990E+02  0.19336E+02 -0.44325E+02  0.44906E+01  0.43658E+01 -0.95033E+01      982.00
  0.92463E+00  0.69534E+02    0.48750E+00  0.48750E+00 -0.97500E+00  0.00000E+00  0.00000E+00  0.00000E+00    0.25017E+02  0.19330E+02 -0.44347E+02  0.44682E+01  0.43172E+01 -0.94874E+01      982.00
  0.94855E+00  0.69546E+02    0.50000E+00  0.50000E+00 -0.10000E+01  0.00000E+00  0.00000E+00  0.00000E+00    0.25045E+02  0.19321E+02 -0.44366E+02  0.44471E+01  0.42699E+01 -0.94729E+01      982.00
