          Evm          Svm            E11          E22          E33          E23          E13          E12         SDEV11       SDEV22       SDEV33       SDEV23       SDEV13       SDEV12      TEMP
  0.00000E+00  0.63173E+02    0.00000E+00  0.00000E+00  0.00000E+00  0.00000E+00  0.00000E+00  0.00000E+00    0.19964E+02  0.19777E+02 -0.39741E+02 -0.30389E+01  0.27510E+01  0.11357E+02      982.00
  0.23590E-01  0.63151E+02    0.12500E-01  0.12500E-01 -0.25000E-01  0.00000E+00  0.00000E+00  0.00000E+00    0.19995E+02  0.19789E+02 -0.39784E+02 -0.29973E+01  0.26704E+01  0.11232E+02      982.00
  0.47215E-01  0.63188E+02    0.25000E-01  0.25000E-01 -0.50000E-01  0.00000E+00  0.00000E+00  0.00000E+00    0.20027E+02  0.19824E+02 -0.39851E+02 -0.29362E+01  0.25861E+01  0.11158E+02      982.00
  0.70865E-01  0.63271E+02    0.37500E-01  0.37500E-01 -0.75000E-01  0.00000E+00  0.00000E+00  0.00000E+00    0.20064E+02  0.19864E+02 -0.39928E+02 -0.28879E+01  0.25222E+01  0.11136E+02      982.00
  0.94530E-01  0.63381E+02    0.50000E-01  0.50000E-01 -0.10000E+00  0.00000E+00  0.00000E+00  0.00000E+00    0.20109E+02  0.19911E+02 -0.40020E+02 -0.28441E+01  0.24645E+01  0.11122E+02      982.00
  0.11821E+00  0.63526E+02    0.62500E-01  0.62500E-01 -0.12500E+00  0.00000E+00  0.00000E+00  0.00000E+00    0.20161E+02  0.19965E+02 -0.40126E+02 -0.27997E+01  0.24048E+01  0.11135E+02      982.00
  0.14189E+00  0.63704E+02    0.75000E-01  0.75000E-01 -0.15000E+00  0.00000E+00  0.00000E+00  0.00000E+00    0.20221E+02  0.20025E+02 -0.40246E+02 -0.27612E+01  0.23511E+01  0.11171E+02      982.00
  0.16559E+00  0.63903E+02    0.87500E-01  0.87500E-01 -0.17500E+00  0.00000E+00  0.00000E+00  0.00000E+00    0.20285E+02  0.20088E+02 -0.40373E+02 -0.27299E+01  0.23051E+01  0.11222E+02      982.00
  0.18928E+00  0.64135E+02    0.10000E+00  0.10000E+00 -0.20000E+00  0.00000E+00  0.00000E+00  0.00000E+00    0.20358E+02  0.20159E+02 -0.40517E+02 -0.27062E+01  0.22669E+01  0.11286E+02      982.00
  0.21297E+00  0.64388E+02    0.11250E+00  0.11250E+00 -0.22500E+00  0.00000E+00  0.00000E+00  0.00000E+00    0.20436E+02  0.20236E+02 -0.40672E+02 -0.26891E+01  0.22364E+01  0.11361E+02      982.00
  0.23666E+00  0.64649E+02    0.12500E+00  0.12500E+00 -0.25000E+00  0.00000E+00  0.00000E+00  0.00000E+00    0.20516E+02  0.20313E+02 -0.40828E+02 -0.26787E+01  0.22122E+01  0.11440E+02      982.00
  0.26034E+00  0.64920E+02    0.13750E+00  0.13750E+00 -0.27500E+00  0.00000E+00  0.00000E+00  0.00000E+00    0.20598E+02  0.20393E+02 -0.40990E+02 -0.26737E+01  0.21940E+01  0.11523E+02      982.00
  0.28402E+00  0.65224E+02    0.15000E+00  0.15000E+00 -0.30000E+00  0.00000E+00  0.00000E+00  0.00000E+00    0.20689E+02  0.20479E+02 -0.41168E+02 -0.26722E+01  0.21779E+01  0.11621E+02      982.00
  0.30768E+00  0.65503E+02    0.16250E+00  0.16250E+00 -0.32500E+00  0.00000E+00  0.00000E+00  0.00000E+00    0.20773E+02  0.20562E+02 -0.41334E+02 -0.26761E+01  0.21696E+01  0.11701E+02      982.00
  0.33135E+00  0.65779E+02    0.17500E+00  0.17500E+00 -0.35000E+00  0.00000E+00  0.00000E+00  0.00000E+00    0.20856E+02  0.20645E+02 -0.41501E+02 -0.26832E+01  0.21660E+01  0.11776E+02      982.00
  0.35501E+00  0.66047E+02    0.18750E+00  0.18750E+00 -0.37500E+00  0.00000E+00  0.00000E+00  0.00000E+00    0.20936E+02  0.20726E+02 -0.41662E+02 -0.26913E+01  0.21636E+01  0.11846E+02      982.00
  0.37866E+00  0.66343E+02    0.20000E+00  0.20000E+00 -0.40000E+00  0.00000E+00  0.00000E+00  0.00000E+00    0.21025E+02  0.20814E+02 -0.41839E+02 -0.27011E+01  0.21613E+01  0.11928E+02      982.00
  0.40231E+00  0.66587E+02    0.21250E+00  0.21250E+00 -0.42500E+00  0.00000E+00  0.00000E+00  0.00000E+00    0.21098E+02  0.20890E+02 -0.41988E+02 -0.27102E+01  0.21610E+01  0.11987E+02      982.00
  0.42596E+00  0.66788E+02    0.22500E+00  0.22500E+00 -0.45000E+00  0.00000E+00  0.00000E+00  0.00000E+00    0.21157E+02  0.20953E+02 -0.42111E+02 -0.27204E+01  0.21633E+01  0.12034E+02      982.00
  0.44960E+00  0.67074E+02    0.23750E+00  0.23750E+00 -0.47500E+00  0.00000E+00  0.00000E+00  0.00000E+00    0.21243E+02  0.21044E+02 -0.42287E+02 -0.27295E+01  0.21630E+01  0.12097E+02      982.00
  0.47324E+00  0.67281E+02    0.25000E+00  0.25000E+00 -0.50000E+00  0.00000E+00  0.00000E+00  0.00000E+00    0.21305E+02  0.21111E+02 -0.42416E+02 -0.27372E+01  0.21630E+01  0.12141E+02      982.00
  0.49689E+00  0.67467E+02    0.26250E+00  0.26250E+00 -0.52500E+00  0.00000E+00  0.00000E+00  0.00000E+00    0.21359E+02  0.21173E+02 -0.42533E+02 -0.27413E+01  0.21615E+01  0.12178E+02      982.00
  0.52053E+00  0.67645E+02    0.27500E+00  0.27500E+00 -0.55000E+00  0.00000E+00  0.00000E+00  0.00000E+00    0.21412E+02  0.21234E+02 -0.42646E+02 -0.27443E+01  0.21598E+01  0.12209E+02      982.00
  0.54417E+00  0.67809E+02    0.28750E+00  0.28750E+00 -0.57500E+00  0.00000E+00  0.00000E+00  0.00000E+00    0.21460E+02  0.21291E+02 -0.42751E+02 -0.27458E+01  0.21568E+01  0.12237E+02      982.00
  0.56781E+00  0.67957E+02    0.30000E+00  0.30000E+00 -0.60000E+00  0.00000E+00  0.00000E+00  0.00000E+00    0.21503E+02  0.21343E+02 -0.42846E+02 -0.27464E+01  0.21534E+01  0.12262E+02      982.00
  0.59145E+00  0.68101E+02    0.31250E+00  0.31250E+00 -0.62500E+00  0.00000E+00  0.00000E+00  0.00000E+00    0.21545E+02  0.21395E+02 -0.42939E+02 -0.27455E+01  0.21490E+01  0.12284E+02      982.00
  0.61510E+00  0.68232E+02    0.32500E+00  0.32500E+00 -0.65000E+00  0.00000E+00  0.00000E+00  0.00000E+00    0.21582E+02  0.21443E+02 -0.43025E+02 -0.27432E+01  0.21439E+01  0.12304E+02      982.00
  0.63874E+00  0.68381E+02    0.33750E+00  0.33750E+00 -0.67500E+00  0.00000E+00  0.00000E+00  0.00000E+00    0.21623E+02  0.21499E+02 -0.43122E+02 -0.27362E+01  0.21339E+01  0.12328E+02      982.00
  0.66239E+00  0.68466E+02    0.35000E+00  0.35000E+00 -0.70000E+00  0.00000E+00  0.00000E+00  0.00000E+00    0.21647E+02  0.21531E+02 -0.43178E+02 -0.27355E+01  0.21317E+01  0.12338E+02      982.00
  0.68604E+00  0.68592E+02    0.36250E+00  0.36250E+00 -0.72500E+00  0.00000E+00  0.00000E+00  0.00000E+00    0.21682E+02  0.21580E+02 -0.43262E+02 -0.27262E+01  0.21210E+01  0.12357E+02      982.00
  0.70969E+00  0.68686E+02    0.37500E+00  0.37500E+00 -0.75000E+00  0.00000E+00  0.00000E+00  0.00000E+00    0.21705E+02  0.21618E+02 -0.43323E+02 -0.27194E+01  0.21130E+01  0.12370E+02      982.00
  0.73335E+00  0.68756E+02    0.38750E+00  0.38750E+00 -0.77500E+00  0.00000E+00  0.00000E+00  0.00000E+00    0.21726E+02  0.21644E+02 -0.43370E+02 -0.27190E+01  0.21118E+01  0.12377E+02      982.00
  0.75700E+00  0.68855E+02    0.40000E+00  0.40000E+00 -0.80000E+00  0.00000E+00  0.00000E+00  0.00000E+00    0.21751E+02  0.21686E+02 -0.43437E+02 -0.27077E+01  0.21013E+01  0.12389E+02      982.00
  0.78066E+00  0.68931E+02    0.41250E+00  0.41250E+00 -0.82500E+00  0.00000E+00  0.00000E+00  0.00000E+00    0.21769E+02  0.21720E+02 -0.43488E+02 -0.27012E+01  0.20943E+01  0.12398E+02      982.00
  0.80432E+00  0.69002E+02    0.42500E+00  0.42500E+00 -0.85000E+00  0.00000E+00  0.00000E+00  0.00000E+00    0.21787E+02  0.21750E+02 -0.43537E+02 -0.26953E+01  0.20879E+01  0.12405E+02      982.00
  0.82798E+00  0.69063E+02    0.43750E+00  0.43750E+00 -0.87500E+00  0.00000E+00  0.00000E+00  0.00000E+00    0.21802E+02  0.21777E+02 -0.43579E+02 -0.26888E+01  0.20825E+01  0.12410E+02      982.00
  0.85164E+00  0.69123E+02    0.45000E+00  0.45000E+00 -0.90000E+00  0.00000E+00  0.00000E+00  0.00000E+00    0.21816E+02  0.21804E+02 -0.43620E+02 -0.26816E+01  0.20759E+01  0.12416E+02      982.00
  0.87530E+00  0.69180E+02    0.46250E+00  0.46250E+00 -0.92500E+00  0.00000E+00  0.00000E+00  0.00000E+00    0.21829E+02  0.21830E+02 -0.43659E+02 -0.26744E+01  0.20701E+01  0.12421E+02      982.00
  0.89897E+00  0.69218E+02    0.47500E+00  0.47500E+00 -0.95000E+00  0.00000E+00  0.00000E+00  0.00000E+00    0.21841E+02  0.21842E+02 -0.43683E+02 -0.26789E+01  0.20738E+01  0.12426E+02      982.00
  0.92264E+00  0.69283E+02    0.48750E+00  0.48750E+00 -0.97500E+00  0.00000E+00  0.00000E+00  0.00000E+00    0.21853E+02  0.21877E+02 -0.43730E+02 -0.26637E+01  0.20619E+01  0.12428E+02      982.00
  0.94631E+00  0.69324E+02    0.50000E+00  0.50000E+00 -0.10000E+01  0.00000E+00  0.00000E+00  0.00000E+00    0.21864E+02  0.21892E+02 -0.43755E+02 -0.26648E+01  0.20631E+01  0.12436E+02      982.00
