          Evm          Svm            E11          E22          E33          E23          E13          E12         SDEV11       SDEV22       SDEV33       SDEV23       SDEV13       SDEV12      TEMP
  0.00000E+00  0.58716E+02    0.00000E+00  0.00000E+00  0.00000E+00  0.00000E+00  0.00000E+00  0.00000E+00    0.24264E+02  0.13279E+02 -0.37543E+02 -0.34016E+01  0.45834E+01 -0.54171E+01      982.00
  0.23977E-01  0.58706E+02    0.12500E-01  0.12500E-01 -0.25000E-01  0.00000E+00  0.00000E+00  0.00000E+00    0.24322E+02  0.13166E+02 -0.37488E+02 -0.34584E+01  0.45170E+01 -0.55961E+01      982.00
  0.47924E-01  0.58754E+02    0.25000E-01  0.25000E-01 -0.50000E-01  0.00000E+00  0.00000E+00  0.00000E+00    0.24381E+02  0.13105E+02 -0.37486E+02 -0.34929E+01  0.44023E+01 -0.57806E+01      982.00
  0.71849E-01  0.58878E+02    0.37500E-01  0.37500E-01 -0.75000E-01  0.00000E+00  0.00000E+00  0.00000E+00    0.24455E+02  0.13088E+02 -0.37543E+02 -0.35384E+01  0.42181E+01 -0.59866E+01      982.00
  0.95761E-01  0.59091E+02    0.50000E-01  0.50000E-01 -0.10000E+00  0.00000E+00  0.00000E+00  0.00000E+00    0.24554E+02  0.13111E+02 -0.37665E+02 -0.36002E+01  0.39536E+01 -0.62117E+01      982.00
  0.11966E+00  0.59353E+02    0.62500E-01  0.62500E-01 -0.12500E+00  0.00000E+00  0.00000E+00  0.00000E+00    0.24665E+02  0.13164E+02 -0.37829E+02 -0.36724E+01  0.36039E+01 -0.64375E+01      982.00
  0.14356E+00  0.59666E+02    0.75000E-01  0.75000E-01 -0.15000E+00  0.00000E+00  0.00000E+00  0.00000E+00    0.24789E+02  0.13244E+02 -0.38033E+02 -0.37465E+01  0.31891E+01 -0.66539E+01      982.00
  0.16747E+00  0.59999E+02    0.87500E-01  0.87500E-01 -0.17500E+00  0.00000E+00  0.00000E+00  0.00000E+00    0.24920E+02  0.13332E+02 -0.38252E+02 -0.38175E+01  0.27436E+01 -0.68471E+01      982.00
  0.19138E+00  0.60374E+02    0.10000E+00  0.10000E+00 -0.20000E+00  0.00000E+00  0.00000E+00  0.00000E+00    0.25073E+02  0.13420E+02 -0.38493E+02 -0.38827E+01  0.23234E+01 -0.70233E+01      982.00
  0.21528E+00  0.60807E+02    0.11250E+00  0.11250E+00 -0.22500E+00  0.00000E+00  0.00000E+00  0.00000E+00    0.25262E+02  0.13498E+02 -0.38761E+02 -0.39512E+01  0.19535E+01 -0.71889E+01      982.00
  0.23919E+00  0.61298E+02    0.12500E+00  0.12500E+00 -0.25000E+00  0.00000E+00  0.00000E+00  0.00000E+00    0.25491E+02  0.13566E+02 -0.39057E+02 -0.40210E+01  0.16451E+01 -0.73452E+01      982.00
  0.26308E+00  0.61831E+02    0.13750E+00  0.13750E+00 -0.27500E+00  0.00000E+00  0.00000E+00  0.00000E+00    0.25749E+02  0.13626E+02 -0.39375E+02 -0.40909E+01  0.13947E+01 -0.74923E+01      982.00
  0.28696E+00  0.62389E+02    0.15000E+00  0.15000E+00 -0.30000E+00  0.00000E+00  0.00000E+00  0.00000E+00    0.26027E+02  0.13679E+02 -0.39705E+02 -0.41570E+01  0.11985E+01 -0.76318E+01      982.00
  0.31083E+00  0.62952E+02    0.16250E+00  0.16250E+00 -0.32500E+00  0.00000E+00  0.00000E+00  0.00000E+00    0.26313E+02  0.13729E+02 -0.40041E+02 -0.42159E+01  0.10328E+01 -0.77516E+01      982.00
  0.33468E+00  0.63517E+02    0.17500E+00  0.17500E+00 -0.35000E+00  0.00000E+00  0.00000E+00  0.00000E+00    0.26603E+02  0.13777E+02 -0.40380E+02 -0.42651E+01  0.90255E+00 -0.78600E+01      982.00
  0.35852E+00  0.64053E+02    0.18750E+00  0.18750E+00 -0.37500E+00  0.00000E+00  0.00000E+00  0.00000E+00    0.26883E+02  0.13822E+02 -0.40705E+02 -0.43048E+01  0.78792E+00 -0.79443E+01      982.00
  0.38235E+00  0.64579E+02    0.20000E+00  0.20000E+00 -0.40000E+00  0.00000E+00  0.00000E+00  0.00000E+00    0.27162E+02  0.13867E+02 -0.41029E+02 -0.43298E+01  0.69837E+00 -0.80146E+01      982.00
  0.40618E+00  0.65066E+02    0.21250E+00  0.21250E+00 -0.42500E+00  0.00000E+00  0.00000E+00  0.00000E+00    0.27424E+02  0.13908E+02 -0.41332E+02 -0.43462E+01  0.61308E+00 -0.80630E+01      982.00
  0.43000E+00  0.65531E+02    0.22500E+00  0.22500E+00 -0.45000E+00  0.00000E+00  0.00000E+00  0.00000E+00    0.27676E+02  0.13950E+02 -0.41626E+02 -0.43493E+01  0.54872E+00 -0.80983E+01      982.00
  0.45382E+00  0.65969E+02    0.23750E+00  0.23750E+00 -0.47500E+00  0.00000E+00  0.00000E+00  0.00000E+00    0.27915E+02  0.13992E+02 -0.41907E+02 -0.43423E+01  0.49430E+00 -0.81170E+01      982.00
  0.47764E+00  0.66342E+02    0.25000E+00  0.25000E+00 -0.50000E+00  0.00000E+00  0.00000E+00  0.00000E+00    0.28125E+02  0.14027E+02 -0.42153E+02 -0.43231E+01  0.45005E+00 -0.81169E+01      982.00
  0.50147E+00  0.66715E+02    0.26250E+00  0.26250E+00 -0.52500E+00  0.00000E+00  0.00000E+00  0.00000E+00    0.28335E+02  0.14065E+02 -0.42400E+02 -0.43008E+01  0.40935E+00 -0.81090E+01      982.00
  0.52530E+00  0.67063E+02    0.27500E+00  0.27500E+00 -0.55000E+00  0.00000E+00  0.00000E+00  0.00000E+00    0.28532E+02  0.14103E+02 -0.42635E+02 -0.42708E+01  0.37401E+00 -0.80868E+01      982.00
  0.54914E+00  0.67371E+02    0.28750E+00  0.28750E+00 -0.57500E+00  0.00000E+00  0.00000E+00  0.00000E+00    0.28714E+02  0.14134E+02 -0.42848E+02 -0.42352E+01  0.33506E+00 -0.80510E+01      982.00
  0.57299E+00  0.67663E+02    0.30000E+00  0.30000E+00 -0.60000E+00  0.00000E+00  0.00000E+00  0.00000E+00    0.28883E+02  0.14169E+02 -0.43052E+02 -0.41956E+01  0.30917E+00 -0.80108E+01      982.00
  0.59685E+00  0.67929E+02    0.31250E+00  0.31250E+00 -0.62500E+00  0.00000E+00  0.00000E+00  0.00000E+00    0.29041E+02  0.14200E+02 -0.43242E+02 -0.41514E+01  0.28732E+00 -0.79609E+01      982.00
  0.62072E+00  0.68182E+02    0.32500E+00  0.32500E+00 -0.65000E+00  0.00000E+00  0.00000E+00  0.00000E+00    0.29191E+02  0.14233E+02 -0.43424E+02 -0.41040E+01  0.26867E+00 -0.79044E+01      982.00
  0.64460E+00  0.68410E+02    0.33750E+00  0.33750E+00 -0.67500E+00  0.00000E+00  0.00000E+00  0.00000E+00    0.29329E+02  0.14263E+02 -0.43592E+02 -0.40552E+01  0.25319E+00 -0.78432E+01      982.00
  0.66850E+00  0.68622E+02    0.35000E+00  0.35000E+00 -0.70000E+00  0.00000E+00  0.00000E+00  0.00000E+00    0.29457E+02  0.14293E+02 -0.43751E+02 -0.40049E+01  0.24061E+00 -0.77764E+01      982.00
  0.69241E+00  0.68815E+02    0.36250E+00  0.36250E+00 -0.72500E+00  0.00000E+00  0.00000E+00  0.00000E+00    0.29576E+02  0.14322E+02 -0.43898E+02 -0.39532E+01  0.23031E+00 -0.77047E+01      982.00
  0.71633E+00  0.68989E+02    0.37500E+00  0.37500E+00 -0.75000E+00  0.00000E+00  0.00000E+00  0.00000E+00    0.29686E+02  0.14347E+02 -0.44033E+02 -0.39027E+01  0.22252E+00 -0.76301E+01      982.00
  0.74027E+00  0.69149E+02    0.38750E+00  0.38750E+00 -0.77500E+00  0.00000E+00  0.00000E+00  0.00000E+00    0.29788E+02  0.14371E+02 -0.44159E+02 -0.38510E+01  0.21694E+00 -0.75529E+01      982.00
  0.76421E+00  0.69310E+02    0.40000E+00  0.40000E+00 -0.80000E+00  0.00000E+00  0.00000E+00  0.00000E+00    0.29887E+02  0.14400E+02 -0.44287E+02 -0.37995E+01  0.21314E+00 -0.74735E+01      982.00
  0.78817E+00  0.69438E+02    0.41250E+00  0.41250E+00 -0.82500E+00  0.00000E+00  0.00000E+00  0.00000E+00    0.29972E+02  0.14421E+02 -0.44393E+02 -0.37499E+01  0.21105E+00 -0.73922E+01      982.00
  0.81215E+00  0.69572E+02    0.42500E+00  0.42500E+00 -0.85000E+00  0.00000E+00  0.00000E+00  0.00000E+00    0.30057E+02  0.14445E+02 -0.44502E+02 -0.37000E+01  0.21065E+00 -0.73084E+01      982.00
  0.83614E+00  0.69689E+02    0.43750E+00  0.43750E+00 -0.87500E+00  0.00000E+00  0.00000E+00  0.00000E+00    0.30134E+02  0.14466E+02 -0.44600E+02 -0.36527E+01  0.21135E+00 -0.72251E+01      982.00
  0.86014E+00  0.69733E+02    0.45000E+00  0.45000E+00 -0.90000E+00  0.00000E+00  0.00000E+00  0.00000E+00    0.30176E+02  0.14477E+02 -0.44653E+02 -0.35927E+01  0.21424E+00 -0.71334E+01      982.00
  0.88415E+00  0.69773E+02    0.46250E+00  0.46250E+00 -0.92500E+00  0.00000E+00  0.00000E+00  0.00000E+00    0.30213E+02  0.14491E+02 -0.44704E+02 -0.35340E+01  0.21720E+00 -0.70436E+01      982.00
  0.90817E+00  0.69805E+02    0.47500E+00  0.47500E+00 -0.95000E+00  0.00000E+00  0.00000E+00  0.00000E+00    0.30249E+02  0.14499E+02 -0.44747E+02 -0.34787E+01  0.21876E+00 -0.69527E+01      982.00
  0.93221E+00  0.69840E+02    0.48750E+00  0.48750E+00 -0.97500E+00  0.00000E+00  0.00000E+00  0.00000E+00    0.30285E+02  0.14508E+02 -0.44793E+02 -0.34265E+01  0.22146E+00 -0.68627E+01      982.00
  0.95626E+00  0.69871E+02    0.50000E+00  0.50000E+00 -0.10000E+01  0.00000E+00  0.00000E+00  0.00000E+00    0.30318E+02  0.14516E+02 -0.44834E+02 -0.33761E+01  0.22526E+00 -0.67757E+01      982.00
