          Evm          Svm            E11          E22          E33          E23          E13          E12         SDEV11       SDEV22       SDEV33       SDEV23       SDEV13       SDEV12      TEMP
  0.00000E+00  0.62298E+02    0.00000E+00  0.00000E+00  0.00000E+00  0.00000E+00  0.00000E+00  0.00000E+00    0.23087E+02  0.17260E+02 -0.40347E+02  0.79714E+01 -0.72926E-01  0.85917E+00      982.00
  0.24287E-01  0.62055E+02    0.12500E-01  0.12500E-01 -0.25000E-01  0.00000E+00  0.00000E+00  0.00000E+00    0.23298E+02  0.16930E+02 -0.40228E+02  0.76513E+01  0.82282E-02  0.10979E+01      982.00
  0.48597E-01  0.61836E+02    0.25000E-01  0.25000E-01 -0.50000E-01  0.00000E+00  0.00000E+00  0.00000E+00    0.23557E+02  0.16566E+02 -0.40123E+02  0.72894E+01  0.78698E-01  0.13440E+01      982.00
  0.72929E-01  0.61615E+02    0.37500E-01  0.37500E-01 -0.75000E-01  0.00000E+00  0.00000E+00  0.00000E+00    0.23818E+02  0.16194E+02 -0.40012E+02  0.69006E+01  0.14746E+00  0.15922E+01      982.00
  0.97281E-01  0.61426E+02    0.50000E-01  0.50000E-01 -0.10000E+00  0.00000E+00  0.00000E+00  0.00000E+00    0.24063E+02  0.15853E+02 -0.39916E+02  0.65205E+01  0.20470E+00  0.18284E+01      982.00
  0.12165E+00  0.61299E+02    0.62500E-01  0.62500E-01 -0.12500E+00  0.00000E+00  0.00000E+00  0.00000E+00    0.24283E+02  0.15567E+02 -0.39850E+02  0.61874E+01  0.24619E+00  0.20435E+01      982.00
  0.14603E+00  0.61285E+02    0.75000E-01  0.75000E-01 -0.15000E+00  0.00000E+00  0.00000E+00  0.00000E+00    0.24492E+02  0.15359E+02 -0.39851E+02  0.59132E+01  0.27990E+00  0.22390E+01      982.00
  0.17041E+00  0.61390E+02    0.87500E-01  0.87500E-01 -0.17500E+00  0.00000E+00  0.00000E+00  0.00000E+00    0.24691E+02  0.15231E+02 -0.39922E+02  0.57103E+01  0.30505E+00  0.24139E+01      982.00
  0.19480E+00  0.61594E+02    0.10000E+00  0.10000E+00 -0.20000E+00  0.00000E+00  0.00000E+00  0.00000E+00    0.24885E+02  0.15169E+02 -0.40054E+02  0.55728E+01  0.32137E+00  0.25743E+01      982.00
  0.21918E+00  0.61877E+02    0.11250E+00  0.11250E+00 -0.22500E+00  0.00000E+00  0.00000E+00  0.00000E+00    0.25073E+02  0.15162E+02 -0.40235E+02  0.54754E+01  0.34020E+00  0.27293E+01      982.00
  0.24357E+00  0.62215E+02    0.12500E+00  0.12500E+00 -0.25000E+00  0.00000E+00  0.00000E+00  0.00000E+00    0.25253E+02  0.15198E+02 -0.40451E+02  0.54226E+01  0.35247E+00  0.28681E+01      982.00
  0.26795E+00  0.62599E+02    0.13750E+00  0.13750E+00 -0.27500E+00  0.00000E+00  0.00000E+00  0.00000E+00    0.25432E+02  0.15262E+02 -0.40693E+02  0.54019E+01  0.36278E+00  0.30096E+01      982.00
  0.29233E+00  0.62975E+02    0.15000E+00  0.15000E+00 -0.30000E+00  0.00000E+00  0.00000E+00  0.00000E+00    0.25589E+02  0.15345E+02 -0.40933E+02  0.53933E+01  0.37057E+00  0.31350E+01      982.00
  0.31670E+00  0.63361E+02    0.16250E+00  0.16250E+00 -0.32500E+00  0.00000E+00  0.00000E+00  0.00000E+00    0.25738E+02  0.15441E+02 -0.41179E+02  0.54000E+01  0.37624E+00  0.32591E+01      982.00
  0.34107E+00  0.63724E+02    0.17500E+00  0.17500E+00 -0.35000E+00  0.00000E+00  0.00000E+00  0.00000E+00    0.25866E+02  0.15543E+02 -0.41409E+02  0.54155E+01  0.38497E+00  0.33827E+01      982.00
  0.36544E+00  0.64087E+02    0.18750E+00  0.18750E+00 -0.37500E+00  0.00000E+00  0.00000E+00  0.00000E+00    0.25988E+02  0.15652E+02 -0.41639E+02  0.54374E+01  0.38705E+00  0.34954E+01      982.00
  0.38981E+00  0.64410E+02    0.20000E+00  0.20000E+00 -0.40000E+00  0.00000E+00  0.00000E+00  0.00000E+00    0.26091E+02  0.15754E+02 -0.41845E+02  0.54607E+01  0.38662E+00  0.36019E+01      982.00
  0.41417E+00  0.64720E+02    0.21250E+00  0.21250E+00 -0.42500E+00  0.00000E+00  0.00000E+00  0.00000E+00    0.26179E+02  0.15862E+02 -0.42041E+02  0.54876E+01  0.38901E+00  0.37133E+01      982.00
  0.43853E+00  0.65005E+02    0.22500E+00  0.22500E+00 -0.45000E+00  0.00000E+00  0.00000E+00  0.00000E+00    0.26258E+02  0.15964E+02 -0.42222E+02  0.55136E+01  0.38582E+00  0.38095E+01      982.00
  0.46289E+00  0.65267E+02    0.23750E+00  0.23750E+00 -0.47500E+00  0.00000E+00  0.00000E+00  0.00000E+00    0.26325E+02  0.16063E+02 -0.42388E+02  0.55385E+01  0.38006E+00  0.39005E+01      982.00
  0.48724E+00  0.65511E+02    0.25000E+00  0.25000E+00 -0.50000E+00  0.00000E+00  0.00000E+00  0.00000E+00    0.26379E+02  0.16163E+02 -0.42542E+02  0.55643E+01  0.37492E+00  0.40024E+01      982.00
  0.51159E+00  0.65728E+02    0.26250E+00  0.26250E+00 -0.52500E+00  0.00000E+00  0.00000E+00  0.00000E+00    0.26426E+02  0.16254E+02 -0.42680E+02  0.55872E+01  0.36751E+00  0.40850E+01      982.00
  0.53594E+00  0.65902E+02    0.27500E+00  0.27500E+00 -0.55000E+00  0.00000E+00  0.00000E+00  0.00000E+00    0.26461E+02  0.16328E+02 -0.42789E+02  0.56070E+01  0.36203E+00  0.41535E+01      982.00
  0.56029E+00  0.66084E+02    0.28750E+00  0.28750E+00 -0.57500E+00  0.00000E+00  0.00000E+00  0.00000E+00    0.26495E+02  0.16410E+02 -0.42905E+02  0.56274E+01  0.35072E+00  0.42279E+01      982.00
  0.58464E+00  0.66255E+02    0.30000E+00  0.30000E+00 -0.60000E+00  0.00000E+00  0.00000E+00  0.00000E+00    0.26523E+02  0.16491E+02 -0.43014E+02  0.56449E+01  0.33889E+00  0.42999E+01      982.00
  0.60898E+00  0.66424E+02    0.31250E+00  0.31250E+00 -0.62500E+00  0.00000E+00  0.00000E+00  0.00000E+00    0.26537E+02  0.16580E+02 -0.43118E+02  0.56720E+01  0.32654E+00  0.43921E+01      982.00
  0.63333E+00  0.66561E+02    0.32500E+00  0.32500E+00 -0.65000E+00  0.00000E+00  0.00000E+00  0.00000E+00    0.26552E+02  0.16653E+02 -0.43205E+02  0.56874E+01  0.31434E+00  0.44581E+01      982.00
  0.65767E+00  0.66689E+02    0.33750E+00  0.33750E+00 -0.67500E+00  0.00000E+00  0.00000E+00  0.00000E+00    0.26562E+02  0.16723E+02 -0.43286E+02  0.57030E+01  0.30034E+00  0.45216E+01      982.00
  0.68201E+00  0.66808E+02    0.35000E+00  0.35000E+00 -0.70000E+00  0.00000E+00  0.00000E+00  0.00000E+00    0.26570E+02  0.16790E+02 -0.43360E+02  0.57182E+01  0.28547E+00  0.45824E+01      982.00
  0.70634E+00  0.66917E+02    0.36250E+00  0.36250E+00 -0.72500E+00  0.00000E+00  0.00000E+00  0.00000E+00    0.26574E+02  0.16855E+02 -0.43429E+02  0.57317E+01  0.27012E+00  0.46414E+01      982.00
  0.73068E+00  0.67019E+02    0.37500E+00  0.37500E+00 -0.75000E+00  0.00000E+00  0.00000E+00  0.00000E+00    0.26576E+02  0.16917E+02 -0.43493E+02  0.57454E+01  0.25447E+00  0.46983E+01      982.00
  0.75502E+00  0.67108E+02    0.38750E+00  0.38750E+00 -0.77500E+00  0.00000E+00  0.00000E+00  0.00000E+00    0.26572E+02  0.16976E+02 -0.43548E+02  0.57592E+01  0.23832E+00  0.47538E+01      982.00
  0.77935E+00  0.67190E+02    0.40000E+00  0.40000E+00 -0.80000E+00  0.00000E+00  0.00000E+00  0.00000E+00    0.26566E+02  0.17032E+02 -0.43599E+02  0.57710E+01  0.22187E+00  0.48073E+01      982.00
  0.80369E+00  0.67267E+02    0.41250E+00  0.41250E+00 -0.82500E+00  0.00000E+00  0.00000E+00  0.00000E+00    0.26549E+02  0.17094E+02 -0.43643E+02  0.57936E+01  0.20814E+00  0.48762E+01      982.00
  0.82802E+00  0.67337E+02    0.42500E+00  0.42500E+00 -0.85000E+00  0.00000E+00  0.00000E+00  0.00000E+00    0.26539E+02  0.17147E+02 -0.43686E+02  0.58070E+01  0.19141E+00  0.49256E+01      982.00
  0.85234E+00  0.67401E+02    0.43750E+00  0.43750E+00 -0.87500E+00  0.00000E+00  0.00000E+00  0.00000E+00    0.26527E+02  0.17198E+02 -0.43725E+02  0.58184E+01  0.17378E+00  0.49736E+01      982.00
  0.87667E+00  0.67403E+02    0.45000E+00  0.45000E+00 -0.90000E+00  0.00000E+00  0.00000E+00  0.00000E+00    0.26515E+02  0.17221E+02 -0.43735E+02  0.57545E+01  0.14765E+00  0.50055E+01      982.00
  0.90100E+00  0.67398E+02    0.46250E+00  0.46250E+00 -0.92500E+00  0.00000E+00  0.00000E+00  0.00000E+00    0.26497E+02  0.17237E+02 -0.43735E+02  0.57411E+01  0.13577E+00  0.50228E+01      982.00
  0.92534E+00  0.67391E+02    0.47500E+00  0.47500E+00 -0.95000E+00  0.00000E+00  0.00000E+00  0.00000E+00    0.26466E+02  0.17264E+02 -0.43731E+02  0.57322E+01  0.11910E+00  0.50524E+01      982.00
  0.94967E+00  0.67393E+02    0.48750E+00  0.48750E+00 -0.97500E+00  0.00000E+00  0.00000E+00  0.00000E+00    0.26428E+02  0.17305E+02 -0.43732E+02  0.57057E+01  0.94806E-01  0.51163E+01      982.00
  0.97401E+00  0.67384E+02    0.50000E+00  0.50000E+00 -0.10000E+01  0.00000E+00  0.00000E+00  0.00000E+00    0.26403E+02  0.17326E+02 -0.43729E+02  0.57029E+01  0.81616E-01  0.51242E+01      982.00
