          Evm          Svm            E11          E22          E33          E23          E13          E12         SDEV11       SDEV22       SDEV33       SDEV23       SDEV13       SDEV12      TEMP
  0.00000E+00  0.57874E+02    0.00000E+00  0.00000E+00  0.00000E+00  0.00000E+00  0.00000E+00  0.00000E+00    0.18999E+02  0.16885E+02 -0.35885E+02  0.67235E+01  0.63032E+01 -0.80392E+01      982.00
  0.23252E-01  0.58005E+02    0.12500E-01  0.12500E-01 -0.25000E-01  0.00000E+00  0.00000E+00  0.00000E+00    0.19060E+02  0.16995E+02 -0.36055E+02  0.67445E+01  0.60891E+01 -0.79327E+01      982.00
  0.46561E-01  0.58175E+02    0.25000E-01  0.25000E-01 -0.50000E-01  0.00000E+00  0.00000E+00  0.00000E+00    0.19170E+02  0.17062E+02 -0.36232E+02  0.67652E+01  0.59190E+01 -0.78511E+01      982.00
  0.69916E-01  0.58373E+02    0.37500E-01  0.37500E-01 -0.75000E-01  0.00000E+00  0.00000E+00  0.00000E+00    0.19292E+02  0.17125E+02 -0.36417E+02  0.67804E+01  0.57745E+01 -0.77890E+01      982.00
  0.93311E-01  0.58592E+02    0.50000E-01  0.50000E-01 -0.10000E+00  0.00000E+00  0.00000E+00  0.00000E+00    0.19419E+02  0.17190E+02 -0.36609E+02  0.67801E+01  0.56548E+01 -0.77451E+01      982.00
  0.11674E+00  0.58829E+02    0.62500E-01  0.62500E-01 -0.12500E+00  0.00000E+00  0.00000E+00  0.00000E+00    0.19547E+02  0.17258E+02 -0.36805E+02  0.67674E+01  0.55593E+01 -0.77227E+01      982.00
  0.14020E+00  0.59092E+02    0.75000E-01  0.75000E-01 -0.15000E+00  0.00000E+00  0.00000E+00  0.00000E+00    0.19672E+02  0.17343E+02 -0.37015E+02  0.67417E+01  0.54814E+01 -0.77159E+01      982.00
  0.16369E+00  0.59391E+02    0.87500E-01  0.87500E-01 -0.17500E+00  0.00000E+00  0.00000E+00  0.00000E+00    0.19798E+02  0.17445E+02 -0.37243E+02  0.67073E+01  0.54222E+01 -0.77276E+01      982.00
  0.18721E+00  0.59705E+02    0.10000E+00  0.10000E+00 -0.20000E+00  0.00000E+00  0.00000E+00  0.00000E+00    0.19911E+02  0.17568E+02 -0.37479E+02  0.66666E+01  0.53705E+01 -0.77493E+01      982.00
  0.21075E+00  0.60050E+02    0.11250E+00  0.11250E+00 -0.22500E+00  0.00000E+00  0.00000E+00  0.00000E+00    0.20019E+02  0.17713E+02 -0.37732E+02  0.66226E+01  0.53311E+01 -0.77830E+01      982.00
  0.23431E+00  0.60420E+02    0.12500E+00  0.12500E+00 -0.25000E+00  0.00000E+00  0.00000E+00  0.00000E+00    0.20125E+02  0.17875E+02 -0.38000E+02  0.65757E+01  0.53019E+01 -0.78253E+01      982.00
  0.25790E+00  0.60795E+02    0.13750E+00  0.13750E+00 -0.27500E+00  0.00000E+00  0.00000E+00  0.00000E+00    0.20214E+02  0.18057E+02 -0.38271E+02  0.65266E+01  0.52761E+01 -0.78696E+01      982.00
  0.28150E+00  0.61179E+02    0.15000E+00  0.15000E+00 -0.30000E+00  0.00000E+00  0.00000E+00  0.00000E+00    0.20291E+02  0.18255E+02 -0.38546E+02  0.64763E+01  0.52557E+01 -0.79152E+01      982.00
  0.30513E+00  0.61566E+02    0.16250E+00  0.16250E+00 -0.32500E+00  0.00000E+00  0.00000E+00  0.00000E+00    0.20356E+02  0.18468E+02 -0.38824E+02  0.64249E+01  0.52402E+01 -0.79600E+01      982.00
  0.32878E+00  0.61960E+02    0.17500E+00  0.17500E+00 -0.35000E+00  0.00000E+00  0.00000E+00  0.00000E+00    0.20417E+02  0.18689E+02 -0.39105E+02  0.63711E+01  0.52320E+01 -0.80050E+01      982.00
  0.35245E+00  0.62340E+02    0.18750E+00  0.18750E+00 -0.37500E+00  0.00000E+00  0.00000E+00  0.00000E+00    0.20456E+02  0.18922E+02 -0.39378E+02  0.63171E+01  0.52249E+01 -0.80432E+01      982.00
  0.37613E+00  0.62711E+02    0.20000E+00  0.20000E+00 -0.40000E+00  0.00000E+00  0.00000E+00  0.00000E+00    0.20481E+02  0.19163E+02 -0.39644E+02  0.62619E+01  0.52208E+01 -0.80758E+01      982.00
  0.39984E+00  0.63068E+02    0.21250E+00  0.21250E+00 -0.42500E+00  0.00000E+00  0.00000E+00  0.00000E+00    0.20493E+02  0.19410E+02 -0.39903E+02  0.62055E+01  0.52195E+01 -0.81023E+01      982.00
  0.42357E+00  0.63412E+02    0.22500E+00  0.22500E+00 -0.45000E+00  0.00000E+00  0.00000E+00  0.00000E+00    0.20492E+02  0.19660E+02 -0.40153E+02  0.61477E+01  0.52206E+01 -0.81223E+01      982.00
  0.44731E+00  0.63740E+02    0.23750E+00  0.23750E+00 -0.47500E+00  0.00000E+00  0.00000E+00  0.00000E+00    0.20479E+02  0.19913E+02 -0.40392E+02  0.60885E+01  0.52236E+01 -0.81356E+01      982.00
  0.47107E+00  0.64051E+02    0.25000E+00  0.25000E+00 -0.50000E+00  0.00000E+00  0.00000E+00  0.00000E+00    0.20455E+02  0.20166E+02 -0.40620E+02  0.60280E+01  0.52284E+01 -0.81421E+01      982.00
  0.49486E+00  0.64344E+02    0.26250E+00  0.26250E+00 -0.52500E+00  0.00000E+00  0.00000E+00  0.00000E+00    0.20420E+02  0.20417E+02 -0.40838E+02  0.59662E+01  0.52344E+01 -0.81420E+01      982.00
  0.51866E+00  0.64614E+02    0.27500E+00  0.27500E+00 -0.55000E+00  0.00000E+00  0.00000E+00  0.00000E+00    0.20371E+02  0.20669E+02 -0.41040E+02  0.59047E+01  0.52351E+01 -0.81336E+01      982.00
  0.54247E+00  0.64874E+02    0.28750E+00  0.28750E+00 -0.57500E+00  0.00000E+00  0.00000E+00  0.00000E+00    0.20318E+02  0.20917E+02 -0.41235E+02  0.58408E+01  0.52433E+01 -0.81214E+01      982.00
  0.56631E+00  0.65117E+02    0.30000E+00  0.30000E+00 -0.60000E+00  0.00000E+00  0.00000E+00  0.00000E+00    0.20258E+02  0.21160E+02 -0.41418E+02  0.57757E+01  0.52524E+01 -0.81036E+01      982.00
  0.59016E+00  0.65343E+02    0.31250E+00  0.31250E+00 -0.62500E+00  0.00000E+00  0.00000E+00  0.00000E+00    0.20192E+02  0.21399E+02 -0.41590E+02  0.57095E+01  0.52617E+01 -0.80801E+01      982.00
  0.61403E+00  0.65545E+02    0.32500E+00  0.32500E+00 -0.65000E+00  0.00000E+00  0.00000E+00  0.00000E+00    0.20108E+02  0.21637E+02 -0.41746E+02  0.56476E+01  0.52685E+01 -0.80492E+01      982.00
  0.63791E+00  0.65742E+02    0.33750E+00  0.33750E+00 -0.67500E+00  0.00000E+00  0.00000E+00  0.00000E+00    0.20031E+02  0.21867E+02 -0.41897E+02  0.55801E+01  0.52786E+01 -0.80164E+01      982.00
  0.66181E+00  0.65924E+02    0.35000E+00  0.35000E+00 -0.70000E+00  0.00000E+00  0.00000E+00  0.00000E+00    0.19949E+02  0.22090E+02 -0.42039E+02  0.55117E+01  0.52893E+01 -0.79796E+01      982.00
  0.68573E+00  0.66086E+02    0.36250E+00  0.36250E+00 -0.72500E+00  0.00000E+00  0.00000E+00  0.00000E+00    0.19849E+02  0.22320E+02 -0.42169E+02  0.54444E+01  0.52984E+01 -0.79313E+01      982.00
  0.70965E+00  0.66243E+02    0.37500E+00  0.37500E+00 -0.75000E+00  0.00000E+00  0.00000E+00  0.00000E+00    0.19760E+02  0.22533E+02 -0.42293E+02  0.53753E+01  0.53091E+01 -0.78868E+01      982.00
  0.73360E+00  0.66387E+02    0.38750E+00  0.38750E+00 -0.77500E+00  0.00000E+00  0.00000E+00  0.00000E+00    0.19668E+02  0.22740E+02 -0.42408E+02  0.53057E+01  0.53203E+01 -0.78393E+01      982.00
  0.75755E+00  0.66517E+02    0.40000E+00  0.40000E+00 -0.80000E+00  0.00000E+00  0.00000E+00  0.00000E+00    0.19551E+02  0.22965E+02 -0.42517E+02  0.52282E+01  0.53308E+01 -0.77732E+01      982.00
  0.78152E+00  0.66639E+02    0.41250E+00  0.41250E+00 -0.82500E+00  0.00000E+00  0.00000E+00  0.00000E+00    0.19455E+02  0.23161E+02 -0.42616E+02  0.51585E+01  0.53418E+01 -0.77195E+01      982.00
  0.80550E+00  0.66752E+02    0.42500E+00  0.42500E+00 -0.85000E+00  0.00000E+00  0.00000E+00  0.00000E+00    0.19357E+02  0.23351E+02 -0.42708E+02  0.50888E+01  0.53535E+01 -0.76638E+01      982.00
  0.82950E+00  0.66856E+02    0.43750E+00  0.43750E+00 -0.87500E+00  0.00000E+00  0.00000E+00  0.00000E+00    0.19258E+02  0.23536E+02 -0.42794E+02  0.50195E+01  0.53654E+01 -0.76058E+01      982.00
  0.85350E+00  0.66952E+02    0.45000E+00  0.45000E+00 -0.90000E+00  0.00000E+00  0.00000E+00  0.00000E+00    0.19158E+02  0.23716E+02 -0.42874E+02  0.49507E+01  0.53774E+01 -0.75457E+01      982.00
  0.87751E+00  0.67040E+02    0.46250E+00  0.46250E+00 -0.92500E+00  0.00000E+00  0.00000E+00  0.00000E+00    0.19056E+02  0.23891E+02 -0.42948E+02  0.48824E+01  0.53896E+01 -0.74835E+01      982.00
  0.90154E+00  0.67071E+02    0.47500E+00  0.47500E+00 -0.95000E+00  0.00000E+00  0.00000E+00  0.00000E+00    0.18975E+02  0.24012E+02 -0.42987E+02  0.48063E+01  0.53826E+01 -0.74300E+01      982.00
  0.92557E+00  0.67089E+02    0.48750E+00  0.48750E+00 -0.97500E+00  0.00000E+00  0.00000E+00  0.00000E+00    0.18873E+02  0.24148E+02 -0.43020E+02  0.47227E+01  0.53729E+01 -0.73573E+01      982.00
  0.94962E+00  0.67104E+02    0.50000E+00  0.50000E+00 -0.10000E+01  0.00000E+00  0.00000E+00  0.00000E+00    0.18771E+02  0.24280E+02 -0.43051E+02  0.46409E+01  0.53640E+01 -0.72849E+01      982.00
