          Evm          Svm            E11          E22          E33          E23          E13          E12         SDEV11       SDEV22       SDEV33       SDEV23       SDEV13       SDEV12      TEMP
  0.00000E+00  0.57862E+02    0.00000E+00  0.00000E+00  0.00000E+00  0.00000E+00  0.00000E+00  0.00000E+00    0.14433E+02  0.18393E+02 -0.32827E+02  0.17981E+01 -0.67448E+00  0.17326E+02      982.00
  0.21275E-01  0.57820E+02    0.12500E-01  0.12500E-01 -0.25000E-01  0.00000E+00  0.00000E+00  0.00000E+00    0.14943E+02  0.17866E+02 -0.32809E+02  0.86776E+00 -0.16927E+00  0.17440E+02      982.00
  0.42554E-01  0.57813E+02    0.25000E-01  0.25000E-01 -0.50000E-01  0.00000E+00  0.00000E+00  0.00000E+00    0.15341E+02  0.17474E+02 -0.32815E+02  0.12682E+00  0.29588E+00  0.17471E+02      982.00
  0.63839E-01  0.57856E+02    0.37500E-01  0.37500E-01 -0.75000E-01  0.00000E+00  0.00000E+00  0.00000E+00    0.15661E+02  0.17191E+02 -0.32852E+02 -0.46885E+00  0.68832E+00  0.17466E+02      982.00
  0.85132E-01  0.57957E+02    0.50000E-01  0.50000E-01 -0.10000E+00  0.00000E+00  0.00000E+00  0.00000E+00    0.15925E+02  0.16996E+02 -0.32921E+02 -0.94850E+00  0.10042E+01  0.17453E+02      982.00
  0.10643E+00  0.58120E+02    0.62500E-01  0.62500E-01 -0.12500E+00  0.00000E+00  0.00000E+00  0.00000E+00    0.16151E+02  0.16871E+02 -0.33022E+02 -0.13367E+01  0.12518E+01  0.17455E+02      982.00
  0.12774E+00  0.58352E+02    0.75000E-01  0.75000E-01 -0.15000E+00  0.00000E+00  0.00000E+00  0.00000E+00    0.16342E+02  0.16814E+02 -0.33155E+02 -0.16450E+01  0.14384E+01  0.17484E+02      982.00
  0.14905E+00  0.58638E+02    0.87500E-01  0.87500E-01 -0.17500E+00  0.00000E+00  0.00000E+00  0.00000E+00    0.16510E+02  0.16807E+02 -0.33318E+02 -0.18886E+01  0.15787E+01  0.17536E+02      982.00
  0.17035E+00  0.58960E+02    0.10000E+00  0.10000E+00 -0.20000E+00  0.00000E+00  0.00000E+00  0.00000E+00    0.16663E+02  0.16836E+02 -0.33499E+02 -0.20868E+01  0.16835E+01  0.17605E+02      982.00
  0.19166E+00  0.59306E+02    0.11250E+00  0.11250E+00 -0.22500E+00  0.00000E+00  0.00000E+00  0.00000E+00    0.16804E+02  0.16893E+02 -0.33697E+02 -0.22458E+01  0.17609E+01  0.17682E+02      982.00
  0.21297E+00  0.59664E+02    0.12500E+00  0.12500E+00 -0.25000E+00  0.00000E+00  0.00000E+00  0.00000E+00    0.16933E+02  0.16969E+02 -0.33903E+02 -0.23743E+01  0.18179E+01  0.17766E+02      982.00
  0.23428E+00  0.60055E+02    0.13750E+00  0.13750E+00 -0.27500E+00  0.00000E+00  0.00000E+00  0.00000E+00    0.17057E+02  0.17066E+02 -0.34123E+02 -0.24718E+01  0.18642E+01  0.17870E+02      982.00
  0.25558E+00  0.60421E+02    0.15000E+00  0.15000E+00 -0.30000E+00  0.00000E+00  0.00000E+00  0.00000E+00    0.17172E+02  0.17164E+02 -0.34335E+02 -0.25547E+01  0.18988E+01  0.17961E+02      982.00
  0.27689E+00  0.60791E+02    0.16250E+00  0.16250E+00 -0.32500E+00  0.00000E+00  0.00000E+00  0.00000E+00    0.17282E+02  0.17267E+02 -0.34549E+02 -0.26248E+01  0.19299E+01  0.18056E+02      982.00
  0.29820E+00  0.61159E+02    0.17500E+00  0.17500E+00 -0.35000E+00  0.00000E+00  0.00000E+00  0.00000E+00    0.17390E+02  0.17376E+02 -0.34766E+02 -0.26688E+01  0.19542E+01  0.18148E+02      982.00
  0.31952E+00  0.61520E+02    0.18750E+00  0.18750E+00 -0.37500E+00  0.00000E+00  0.00000E+00  0.00000E+00    0.17496E+02  0.17485E+02 -0.34981E+02 -0.27123E+01  0.19796E+01  0.18237E+02      982.00
  0.34084E+00  0.61873E+02    0.20000E+00  0.20000E+00 -0.40000E+00  0.00000E+00  0.00000E+00  0.00000E+00    0.17602E+02  0.17594E+02 -0.35196E+02 -0.27444E+01  0.20033E+01  0.18317E+02      982.00
  0.36218E+00  0.62196E+02    0.21250E+00  0.21250E+00 -0.42500E+00  0.00000E+00  0.00000E+00  0.00000E+00    0.17701E+02  0.17698E+02 -0.35399E+02 -0.27566E+01  0.20163E+01  0.18384E+02      982.00
  0.38352E+00  0.62480E+02    0.22500E+00  0.22500E+00 -0.45000E+00  0.00000E+00  0.00000E+00  0.00000E+00    0.17794E+02  0.17793E+02 -0.35587E+02 -0.27575E+01  0.20247E+01  0.18432E+02      982.00
  0.40488E+00  0.62743E+02    0.23750E+00  0.23750E+00 -0.47500E+00  0.00000E+00  0.00000E+00  0.00000E+00    0.17883E+02  0.17882E+02 -0.35765E+02 -0.27526E+01  0.20307E+01  0.18471E+02      982.00
  0.42625E+00  0.62987E+02    0.25000E+00  0.25000E+00 -0.50000E+00  0.00000E+00  0.00000E+00  0.00000E+00    0.17969E+02  0.17965E+02 -0.35935E+02 -0.27432E+01  0.20339E+01  0.18502E+02      982.00
  0.44765E+00  0.63213E+02    0.26250E+00  0.26250E+00 -0.52500E+00  0.00000E+00  0.00000E+00  0.00000E+00    0.18052E+02  0.18043E+02 -0.36095E+02 -0.27303E+01  0.20347E+01  0.18526E+02      982.00
  0.46906E+00  0.63420E+02    0.27500E+00  0.27500E+00 -0.55000E+00  0.00000E+00  0.00000E+00  0.00000E+00    0.18132E+02  0.18115E+02 -0.36246E+02 -0.27145E+01  0.20332E+01  0.18544E+02      982.00
  0.49049E+00  0.63612E+02    0.28750E+00  0.28750E+00 -0.57500E+00  0.00000E+00  0.00000E+00  0.00000E+00    0.18208E+02  0.18181E+02 -0.36389E+02 -0.26963E+01  0.20296E+01  0.18556E+02      982.00
  0.51194E+00  0.63788E+02    0.30000E+00  0.30000E+00 -0.60000E+00  0.00000E+00  0.00000E+00  0.00000E+00    0.18281E+02  0.18242E+02 -0.36523E+02 -0.26762E+01  0.20242E+01  0.18564E+02      982.00
  0.53342E+00  0.63942E+02    0.31250E+00  0.31250E+00 -0.62500E+00  0.00000E+00  0.00000E+00  0.00000E+00    0.18346E+02  0.18298E+02 -0.36644E+02 -0.26626E+01  0.20170E+01  0.18565E+02      982.00
  0.55491E+00  0.64094E+02    0.32500E+00  0.32500E+00 -0.65000E+00  0.00000E+00  0.00000E+00  0.00000E+00    0.18412E+02  0.18351E+02 -0.36763E+02 -0.26434E+01  0.20091E+01  0.18566E+02      982.00
  0.57642E+00  0.64233E+02    0.33750E+00  0.33750E+00 -0.67500E+00  0.00000E+00  0.00000E+00  0.00000E+00    0.18476E+02  0.18398E+02 -0.36874E+02 -0.26217E+01  0.20004E+01  0.18564E+02      982.00
  0.59794E+00  0.64361E+02    0.35000E+00  0.35000E+00 -0.70000E+00  0.00000E+00  0.00000E+00  0.00000E+00    0.18537E+02  0.18442E+02 -0.36979E+02 -0.25992E+01  0.19908E+01  0.18560E+02      982.00
  0.61949E+00  0.64479E+02    0.36250E+00  0.36250E+00 -0.72500E+00  0.00000E+00  0.00000E+00  0.00000E+00    0.18596E+02  0.18481E+02 -0.37077E+02 -0.25764E+01  0.19806E+01  0.18554E+02      982.00
  0.64105E+00  0.64577E+02    0.37500E+00  0.37500E+00 -0.75000E+00  0.00000E+00  0.00000E+00  0.00000E+00    0.18646E+02  0.18512E+02 -0.37158E+02 -0.25582E+01  0.19728E+01  0.18549E+02      982.00
  0.66263E+00  0.64679E+02    0.38750E+00  0.38750E+00 -0.77500E+00  0.00000E+00  0.00000E+00  0.00000E+00    0.18701E+02  0.18545E+02 -0.37246E+02 -0.25361E+01  0.19618E+01  0.18541E+02      982.00
  0.68422E+00  0.64774E+02    0.40000E+00  0.40000E+00 -0.80000E+00  0.00000E+00  0.00000E+00  0.00000E+00    0.18753E+02  0.18573E+02 -0.37327E+02 -0.25137E+01  0.19504E+01  0.18532E+02      982.00
  0.70583E+00  0.64861E+02    0.41250E+00  0.41250E+00 -0.82500E+00  0.00000E+00  0.00000E+00  0.00000E+00    0.18804E+02  0.18599E+02 -0.37403E+02 -0.24917E+01  0.19387E+01  0.18522E+02      982.00
  0.72746E+00  0.64942E+02    0.42500E+00  0.42500E+00 -0.85000E+00  0.00000E+00  0.00000E+00  0.00000E+00    0.18853E+02  0.18621E+02 -0.37475E+02 -0.24703E+01  0.19269E+01  0.18513E+02      982.00
  0.74910E+00  0.65017E+02    0.43750E+00  0.43750E+00 -0.87500E+00  0.00000E+00  0.00000E+00  0.00000E+00    0.18900E+02  0.18641E+02 -0.37541E+02 -0.24495E+01  0.19152E+01  0.18503E+02      982.00
  0.77075E+00  0.65086E+02    0.45000E+00  0.45000E+00 -0.90000E+00  0.00000E+00  0.00000E+00  0.00000E+00    0.18946E+02  0.18658E+02 -0.37604E+02 -0.24294E+01  0.19036E+01  0.18493E+02      982.00
  0.79242E+00  0.65151E+02    0.46250E+00  0.46250E+00 -0.92500E+00  0.00000E+00  0.00000E+00  0.00000E+00    0.18990E+02  0.18673E+02 -0.37663E+02 -0.24102E+01  0.18921E+01  0.18483E+02      982.00
  0.81410E+00  0.65212E+02    0.47500E+00  0.47500E+00 -0.95000E+00  0.00000E+00  0.00000E+00  0.00000E+00    0.19033E+02  0.18685E+02 -0.37718E+02 -0.23918E+01  0.18809E+01  0.18473E+02      982.00
  0.83579E+00  0.65268E+02    0.48750E+00  0.48750E+00 -0.97500E+00  0.00000E+00  0.00000E+00  0.00000E+00    0.19074E+02  0.18695E+02 -0.37769E+02 -0.23743E+01  0.18699E+01  0.18464E+02      982.00
  0.85749E+00  0.65320E+02    0.50000E+00  0.50000E+00 -0.10000E+01  0.00000E+00  0.00000E+00  0.00000E+00    0.19115E+02  0.18703E+02 -0.37817E+02 -0.23577E+01  0.18593E+01  0.18455E+02      982.00
