          Evm          Svm            E11          E22          E33          E23          E13          E12         SDEV11       SDEV22       SDEV33       SDEV23       SDEV13       SDEV12      TEMP
  0.00000E+00  0.54600E+02    0.00000E+00  0.00000E+00  0.00000E+00  0.00000E+00  0.00000E+00  0.00000E+00    0.17040E+02  0.15523E+02 -0.32563E+02  0.20713E+00  0.23935E+01  0.13861E+02      982.00
  0.22365E-01  0.54543E+02    0.12500E-01  0.12500E-01 -0.25000E-01  0.00000E+00  0.00000E+00  0.00000E+00    0.17501E+02  0.15039E+02 -0.32540E+02 -0.49713E+00  0.26984E+01  0.13728E+02      982.00
  0.44737E-01  0.54484E+02    0.25000E-01  0.25000E-01 -0.50000E-01  0.00000E+00  0.00000E+00  0.00000E+00    0.17852E+02  0.14663E+02 -0.32515E+02 -0.99416E+00  0.28410E+01  0.13600E+02      982.00
  0.67116E-01  0.54476E+02    0.37500E-01  0.37500E-01 -0.75000E-01  0.00000E+00  0.00000E+00  0.00000E+00    0.18129E+02  0.14386E+02 -0.32515E+02 -0.13461E+01  0.28910E+01  0.13514E+02      982.00
  0.89499E-01  0.54586E+02    0.50000E-01  0.50000E-01 -0.10000E+00  0.00000E+00  0.00000E+00  0.00000E+00    0.18367E+02  0.14202E+02 -0.32569E+02 -0.16117E+01  0.28828E+01  0.13506E+02      982.00
  0.11187E+00  0.54831E+02    0.62500E-01  0.62500E-01 -0.12500E+00  0.00000E+00  0.00000E+00  0.00000E+00    0.18597E+02  0.14087E+02 -0.32684E+02 -0.18268E+01  0.28481E+01  0.13580E+02      982.00
  0.13423E+00  0.55189E+02    0.75000E-01  0.75000E-01 -0.15000E+00  0.00000E+00  0.00000E+00  0.00000E+00    0.18826E+02  0.14028E+02 -0.32854E+02 -0.20025E+01  0.28030E+01  0.13715E+02      982.00
  0.15655E+00  0.55603E+02    0.87500E-01  0.87500E-01 -0.17500E+00  0.00000E+00  0.00000E+00  0.00000E+00    0.19044E+02  0.14009E+02 -0.33053E+02 -0.21507E+01  0.27482E+01  0.13881E+02      982.00
  0.17884E+00  0.56073E+02    0.10000E+00  0.10000E+00 -0.20000E+00  0.00000E+00  0.00000E+00  0.00000E+00    0.19259E+02  0.14021E+02 -0.33280E+02 -0.22817E+01  0.26925E+01  0.14074E+02      982.00
  0.20110E+00  0.56562E+02    0.11250E+00  0.11250E+00 -0.22500E+00  0.00000E+00  0.00000E+00  0.00000E+00    0.19456E+02  0.14059E+02 -0.33515E+02 -0.23863E+01  0.26528E+01  0.14281E+02      982.00
  0.22332E+00  0.57072E+02    0.12500E+00  0.12500E+00 -0.25000E+00  0.00000E+00  0.00000E+00  0.00000E+00    0.19645E+02  0.14119E+02 -0.33765E+02 -0.24728E+01  0.26264E+01  0.14494E+02      982.00
  0.24550E+00  0.57583E+02    0.13750E+00  0.13750E+00 -0.27500E+00  0.00000E+00  0.00000E+00  0.00000E+00    0.19821E+02  0.14194E+02 -0.34015E+02 -0.25417E+01  0.26108E+01  0.14707E+02      982.00
  0.26766E+00  0.58083E+02    0.15000E+00  0.15000E+00 -0.30000E+00  0.00000E+00  0.00000E+00  0.00000E+00    0.19982E+02  0.14280E+02 -0.34262E+02 -0.25942E+01  0.26071E+01  0.14915E+02      982.00
  0.28978E+00  0.58575E+02    0.16250E+00  0.16250E+00 -0.32500E+00  0.00000E+00  0.00000E+00  0.00000E+00    0.20129E+02  0.14380E+02 -0.34509E+02 -0.26313E+01  0.26114E+01  0.15116E+02      982.00
  0.31187E+00  0.59043E+02    0.17500E+00  0.17500E+00 -0.35000E+00  0.00000E+00  0.00000E+00  0.00000E+00    0.20259E+02  0.14485E+02 -0.34744E+02 -0.26549E+01  0.26252E+01  0.15310E+02      982.00
  0.33394E+00  0.59494E+02    0.18750E+00  0.18750E+00 -0.37500E+00  0.00000E+00  0.00000E+00  0.00000E+00    0.20374E+02  0.14599E+02 -0.34974E+02 -0.26661E+01  0.26444E+01  0.15494E+02      982.00
  0.35598E+00  0.59935E+02    0.20000E+00  0.20000E+00 -0.40000E+00  0.00000E+00  0.00000E+00  0.00000E+00    0.20479E+02  0.14716E+02 -0.35195E+02 -0.26655E+01  0.26758E+01  0.15679E+02      982.00
  0.37800E+00  0.60337E+02    0.21250E+00  0.21250E+00 -0.42500E+00  0.00000E+00  0.00000E+00  0.00000E+00    0.20561E+02  0.14838E+02 -0.35399E+02 -0.26570E+01  0.27013E+01  0.15849E+02      982.00
  0.40000E+00  0.60701E+02    0.22500E+00  0.22500E+00 -0.45000E+00  0.00000E+00  0.00000E+00  0.00000E+00    0.20617E+02  0.14966E+02 -0.35583E+02 -0.26436E+01  0.27210E+01  0.16007E+02      982.00
  0.42199E+00  0.61079E+02    0.23750E+00  0.23750E+00 -0.47500E+00  0.00000E+00  0.00000E+00  0.00000E+00    0.20679E+02  0.15094E+02 -0.35773E+02 -0.26235E+01  0.27517E+01  0.16172E+02      982.00
  0.44395E+00  0.61402E+02    0.25000E+00  0.25000E+00 -0.50000E+00  0.00000E+00  0.00000E+00  0.00000E+00    0.20704E+02  0.15230E+02 -0.35934E+02 -0.26019E+01  0.27679E+01  0.16321E+02      982.00
  0.46589E+00  0.61720E+02    0.26250E+00  0.26250E+00 -0.52500E+00  0.00000E+00  0.00000E+00  0.00000E+00    0.20724E+02  0.15366E+02 -0.36091E+02 -0.25800E+01  0.27837E+01  0.16471E+02      982.00
  0.48782E+00  0.62022E+02    0.27500E+00  0.27500E+00 -0.55000E+00  0.00000E+00  0.00000E+00  0.00000E+00    0.20732E+02  0.15505E+02 -0.36237E+02 -0.25604E+01  0.27910E+01  0.16619E+02      982.00
  0.50973E+00  0.62319E+02    0.28750E+00  0.28750E+00 -0.57500E+00  0.00000E+00  0.00000E+00  0.00000E+00    0.20738E+02  0.15639E+02 -0.36378E+02 -0.25435E+01  0.27949E+01  0.16771E+02      982.00
  0.53162E+00  0.62591E+02    0.30000E+00  0.30000E+00 -0.60000E+00  0.00000E+00  0.00000E+00  0.00000E+00    0.20724E+02  0.15783E+02 -0.36507E+02 -0.25331E+01  0.27823E+01  0.16912E+02      982.00
  0.55350E+00  0.62822E+02    0.31250E+00  0.31250E+00 -0.62500E+00  0.00000E+00  0.00000E+00  0.00000E+00    0.20687E+02  0.15930E+02 -0.36617E+02 -0.25287E+01  0.27529E+01  0.17038E+02      982.00
  0.57535E+00  0.63084E+02    0.32500E+00  0.32500E+00 -0.65000E+00  0.00000E+00  0.00000E+00  0.00000E+00    0.20666E+02  0.16071E+02 -0.36737E+02 -0.25304E+01  0.27251E+01  0.17183E+02      982.00
  0.59719E+00  0.63303E+02    0.33750E+00  0.33750E+00 -0.67500E+00  0.00000E+00  0.00000E+00  0.00000E+00    0.20621E+02  0.16215E+02 -0.36835E+02 -0.25378E+01  0.26798E+01  0.17311E+02      982.00
  0.61901E+00  0.63512E+02    0.35000E+00  0.35000E+00 -0.70000E+00  0.00000E+00  0.00000E+00  0.00000E+00    0.20573E+02  0.16360E+02 -0.36933E+02 -0.25503E+01  0.26249E+01  0.17428E+02      982.00
  0.64082E+00  0.63698E+02    0.36250E+00  0.36250E+00 -0.72500E+00  0.00000E+00  0.00000E+00  0.00000E+00    0.20519E+02  0.16498E+02 -0.37017E+02 -0.25645E+01  0.25658E+01  0.17538E+02      982.00
  0.66261E+00  0.63876E+02    0.37500E+00  0.37500E+00 -0.75000E+00  0.00000E+00  0.00000E+00  0.00000E+00    0.20468E+02  0.16632E+02 -0.37100E+02 -0.25761E+01  0.25095E+01  0.17640E+02      982.00
  0.68439E+00  0.64037E+02    0.38750E+00  0.38750E+00 -0.77500E+00  0.00000E+00  0.00000E+00  0.00000E+00    0.20413E+02  0.16763E+02 -0.37176E+02 -0.25891E+01  0.24473E+01  0.17730E+02      982.00
  0.70616E+00  0.64188E+02    0.40000E+00  0.40000E+00 -0.80000E+00  0.00000E+00  0.00000E+00  0.00000E+00    0.20360E+02  0.16891E+02 -0.37250E+02 -0.26027E+01  0.23806E+01  0.17811E+02      982.00
  0.72792E+00  0.64331E+02    0.41250E+00  0.41250E+00 -0.82500E+00  0.00000E+00  0.00000E+00  0.00000E+00    0.20313E+02  0.17008E+02 -0.37321E+02 -0.26061E+01  0.23292E+01  0.17886E+02      982.00
  0.74968E+00  0.64460E+02    0.42500E+00  0.42500E+00 -0.85000E+00  0.00000E+00  0.00000E+00  0.00000E+00    0.20266E+02  0.17120E+02 -0.37387E+02 -0.26125E+01  0.22694E+01  0.17952E+02      982.00
  0.77143E+00  0.64578E+02    0.43750E+00  0.43750E+00 -0.87500E+00  0.00000E+00  0.00000E+00  0.00000E+00    0.20225E+02  0.17224E+02 -0.37449E+02 -0.26114E+01  0.22200E+01  0.18008E+02      982.00
  0.79318E+00  0.64691E+02    0.45000E+00  0.45000E+00 -0.90000E+00  0.00000E+00  0.00000E+00  0.00000E+00    0.20189E+02  0.17321E+02 -0.37510E+02 -0.26061E+01  0.21755E+01  0.18059E+02      982.00
  0.81492E+00  0.64791E+02    0.46250E+00  0.46250E+00 -0.92500E+00  0.00000E+00  0.00000E+00  0.00000E+00    0.20155E+02  0.17411E+02 -0.37566E+02 -0.25993E+01  0.21278E+01  0.18103E+02      982.00
  0.83666E+00  0.64889E+02    0.47500E+00  0.47500E+00 -0.95000E+00  0.00000E+00  0.00000E+00  0.00000E+00    0.20128E+02  0.17494E+02 -0.37622E+02 -0.25879E+01  0.20915E+01  0.18142E+02      982.00
  0.85840E+00  0.64976E+02    0.48750E+00  0.48750E+00 -0.97500E+00  0.00000E+00  0.00000E+00  0.00000E+00    0.20104E+02  0.17570E+02 -0.37674E+02 -0.25736E+01  0.20602E+01  0.18175E+02      982.00
  0.88015E+00  0.65013E+02    0.50000E+00  0.50000E+00 -0.10000E+01  0.00000E+00  0.00000E+00  0.00000E+00    0.20074E+02  0.17626E+02 -0.37700E+02 -0.25465E+01  0.20185E+01  0.18190E+02      982.00
