          Evm          Svm            E11          E22          E33          E23          E13          E12         SDEV11       SDEV22       SDEV33       SDEV23       SDEV13       SDEV12      TEMP
  0.00000E+00  0.55761E+02    0.00000E+00  0.00000E+00  0.00000E+00  0.00000E+00  0.00000E+00  0.00000E+00    0.14968E+02  0.20802E+02 -0.35770E+02 -0.32630E+01  0.24803E+01  0.71751E+01      982.00
  0.24056E-01  0.55520E+02    0.12500E-01  0.12500E-01 -0.25000E-01  0.00000E+00  0.00000E+00  0.00000E+00    0.15303E+02  0.20351E+02 -0.35654E+02 -0.30748E+01  0.24289E+01  0.72362E+01      982.00
  0.48138E-01  0.55409E+02    0.25000E-01  0.25000E-01 -0.50000E-01  0.00000E+00  0.00000E+00  0.00000E+00    0.15730E+02  0.19873E+02 -0.35603E+02 -0.28895E+01  0.24567E+01  0.73494E+01      982.00
  0.72234E-01  0.55433E+02    0.37500E-01  0.37500E-01 -0.75000E-01  0.00000E+00  0.00000E+00  0.00000E+00    0.16265E+02  0.19354E+02 -0.35619E+02 -0.26732E+01  0.25497E+01  0.75301E+01      982.00
  0.96330E-01  0.55578E+02    0.50000E-01  0.50000E-01 -0.10000E+00  0.00000E+00  0.00000E+00  0.00000E+00    0.16868E+02  0.18819E+02 -0.35687E+02 -0.24458E+01  0.27017E+01  0.77624E+01      982.00
  0.12041E+00  0.55813E+02    0.62500E-01  0.62500E-01 -0.12500E+00  0.00000E+00  0.00000E+00  0.00000E+00    0.17489E+02  0.18298E+02 -0.35787E+02 -0.22262E+01  0.28939E+01  0.80226E+01      982.00
  0.14445E+00  0.56101E+02    0.75000E-01  0.75000E-01 -0.15000E+00  0.00000E+00  0.00000E+00  0.00000E+00    0.18076E+02  0.17825E+02 -0.35902E+02 -0.20333E+01  0.31006E+01  0.82856E+01      982.00
  0.16845E+00  0.56430E+02    0.87500E-01  0.87500E-01 -0.17500E+00  0.00000E+00  0.00000E+00  0.00000E+00    0.18617E+02  0.17412E+02 -0.36029E+02 -0.18644E+01  0.33072E+01  0.85496E+01      982.00
  0.19239E+00  0.56788E+02    0.10000E+00  0.10000E+00 -0.20000E+00  0.00000E+00  0.00000E+00  0.00000E+00    0.19092E+02  0.17078E+02 -0.36170E+02 -0.17246E+01  0.34973E+01  0.88070E+01      982.00
  0.21628E+00  0.57173E+02    0.11250E+00  0.11250E+00 -0.22500E+00  0.00000E+00  0.00000E+00  0.00000E+00    0.19513E+02  0.16811E+02 -0.36324E+02 -0.16021E+01  0.36706E+01  0.90637E+01      982.00
  0.24010E+00  0.57579E+02    0.12500E+00  0.12500E+00 -0.25000E+00  0.00000E+00  0.00000E+00  0.00000E+00    0.19887E+02  0.16604E+02 -0.36492E+02 -0.14928E+01  0.38245E+01  0.93190E+01      982.00
  0.26387E+00  0.57996E+02    0.13750E+00  0.13750E+00 -0.27500E+00  0.00000E+00  0.00000E+00  0.00000E+00    0.20214E+02  0.16456E+02 -0.36670E+02 -0.13986E+01  0.39550E+01  0.95669E+01      982.00
  0.28758E+00  0.58411E+02    0.15000E+00  0.15000E+00 -0.30000E+00  0.00000E+00  0.00000E+00  0.00000E+00    0.20497E+02  0.16355E+02 -0.36852E+02 -0.13161E+01  0.40637E+01  0.98076E+01      982.00
  0.31124E+00  0.58829E+02    0.16250E+00  0.16250E+00 -0.32500E+00  0.00000E+00  0.00000E+00  0.00000E+00    0.20755E+02  0.16283E+02 -0.37038E+02 -0.12399E+01  0.41595E+01  0.10045E+02      982.00
  0.33485E+00  0.59242E+02    0.17500E+00  0.17500E+00 -0.35000E+00  0.00000E+00  0.00000E+00  0.00000E+00    0.20976E+02  0.16248E+02 -0.37224E+02 -0.11808E+01  0.42380E+01  0.10280E+02      982.00
  0.35841E+00  0.59651E+02    0.18750E+00  0.18750E+00 -0.37500E+00  0.00000E+00  0.00000E+00  0.00000E+00    0.21181E+02  0.16224E+02 -0.37405E+02 -0.11354E+01  0.43199E+01  0.10517E+02      982.00
  0.38193E+00  0.60053E+02    0.20000E+00  0.20000E+00 -0.40000E+00  0.00000E+00  0.00000E+00  0.00000E+00    0.21352E+02  0.16229E+02 -0.37580E+02 -0.11235E+01  0.43961E+01  0.10759E+02      982.00
  0.40539E+00  0.60427E+02    0.21250E+00  0.21250E+00 -0.42500E+00  0.00000E+00  0.00000E+00  0.00000E+00    0.21488E+02  0.16249E+02 -0.37738E+02 -0.11345E+01  0.44651E+01  0.10998E+02      982.00
  0.42881E+00  0.60757E+02    0.22500E+00  0.22500E+00 -0.45000E+00  0.00000E+00  0.00000E+00  0.00000E+00    0.21592E+02  0.16282E+02 -0.37874E+02 -0.11398E+01  0.45080E+01  0.11224E+02      982.00
  0.45219E+00  0.61037E+02    0.23750E+00  0.23750E+00 -0.47500E+00  0.00000E+00  0.00000E+00  0.00000E+00    0.21658E+02  0.16333E+02 -0.37991E+02 -0.11120E+01  0.45019E+01  0.11434E+02      982.00
  0.47553E+00  0.61309E+02    0.25000E+00  0.25000E+00 -0.50000E+00  0.00000E+00  0.00000E+00  0.00000E+00    0.21695E+02  0.16417E+02 -0.38111E+02 -0.10579E+01  0.44172E+01  0.11661E+02      982.00
  0.49884E+00  0.61553E+02    0.26250E+00  0.26250E+00 -0.52500E+00  0.00000E+00  0.00000E+00  0.00000E+00    0.21729E+02  0.16490E+02 -0.38219E+02 -0.10065E+01  0.43305E+01  0.11864E+02      982.00
  0.52213E+00  0.61783E+02    0.27500E+00  0.27500E+00 -0.55000E+00  0.00000E+00  0.00000E+00  0.00000E+00    0.21750E+02  0.16570E+02 -0.38319E+02 -0.92841E+00  0.42162E+01  0.12073E+02      982.00
  0.54538E+00  0.62005E+02    0.28750E+00  0.28750E+00 -0.57500E+00  0.00000E+00  0.00000E+00  0.00000E+00    0.21771E+02  0.16641E+02 -0.38412E+02 -0.84849E+00  0.40934E+01  0.12283E+02      982.00
  0.56862E+00  0.62216E+02    0.30000E+00  0.30000E+00 -0.60000E+00  0.00000E+00  0.00000E+00  0.00000E+00    0.21783E+02  0.16715E+02 -0.38499E+02 -0.76876E+00  0.39662E+01  0.12488E+02      982.00
  0.59182E+00  0.62420E+02    0.31250E+00  0.31250E+00 -0.62500E+00  0.00000E+00  0.00000E+00  0.00000E+00    0.21794E+02  0.16785E+02 -0.38579E+02 -0.69597E+00  0.38405E+01  0.12689E+02      982.00
  0.61500E+00  0.62618E+02    0.32500E+00  0.32500E+00 -0.65000E+00  0.00000E+00  0.00000E+00  0.00000E+00    0.21806E+02  0.16849E+02 -0.38654E+02 -0.63286E+00  0.37192E+01  0.12885E+02      982.00
  0.63815E+00  0.62806E+02    0.33750E+00  0.33750E+00 -0.67500E+00  0.00000E+00  0.00000E+00  0.00000E+00    0.21811E+02  0.16913E+02 -0.38724E+02 -0.57989E+00  0.36019E+01  0.13072E+02      982.00
  0.66127E+00  0.62992E+02    0.35000E+00  0.35000E+00 -0.70000E+00  0.00000E+00  0.00000E+00  0.00000E+00    0.21825E+02  0.16966E+02 -0.38791E+02 -0.53978E+00  0.34922E+01  0.13256E+02      982.00
  0.68436E+00  0.63174E+02    0.36250E+00  0.36250E+00 -0.72500E+00  0.00000E+00  0.00000E+00  0.00000E+00    0.21843E+02  0.17012E+02 -0.38855E+02 -0.51200E+00  0.33878E+01  0.13434E+02      982.00
  0.70742E+00  0.63352E+02    0.37500E+00  0.37500E+00 -0.75000E+00  0.00000E+00  0.00000E+00  0.00000E+00    0.21862E+02  0.17054E+02 -0.38916E+02 -0.49574E+00  0.32879E+01  0.13607E+02      982.00
  0.73046E+00  0.63527E+02    0.38750E+00  0.38750E+00 -0.77500E+00  0.00000E+00  0.00000E+00  0.00000E+00    0.21884E+02  0.17091E+02 -0.38975E+02 -0.49037E+00  0.31916E+01  0.13775E+02      982.00
  0.75347E+00  0.63695E+02    0.40000E+00  0.40000E+00 -0.80000E+00  0.00000E+00  0.00000E+00  0.00000E+00    0.21908E+02  0.17122E+02 -0.39030E+02 -0.49768E+00  0.31036E+01  0.13937E+02      982.00
  0.77645E+00  0.63866E+02    0.41250E+00  0.41250E+00 -0.82500E+00  0.00000E+00  0.00000E+00  0.00000E+00    0.21934E+02  0.17152E+02 -0.39086E+02 -0.51132E+00  0.30107E+01  0.14098E+02      982.00
  0.79940E+00  0.64034E+02    0.42500E+00  0.42500E+00 -0.85000E+00  0.00000E+00  0.00000E+00  0.00000E+00    0.21962E+02  0.17179E+02 -0.39141E+02 -0.53376E+00  0.29182E+01  0.14257E+02      982.00
  0.82232E+00  0.64202E+02    0.43750E+00  0.43750E+00 -0.87500E+00  0.00000E+00  0.00000E+00  0.00000E+00    0.21990E+02  0.17204E+02 -0.39194E+02 -0.56435E+00  0.28252E+01  0.14415E+02      982.00
  0.84521E+00  0.64368E+02    0.45000E+00  0.45000E+00 -0.90000E+00  0.00000E+00  0.00000E+00  0.00000E+00    0.22021E+02  0.17226E+02 -0.39246E+02 -0.60247E+00  0.27310E+01  0.14571E+02      982.00
  0.86808E+00  0.64549E+02    0.46250E+00  0.46250E+00 -0.92500E+00  0.00000E+00  0.00000E+00  0.00000E+00    0.22062E+02  0.17239E+02 -0.39301E+02 -0.64544E+00  0.26416E+01  0.14739E+02      982.00
  0.89091E+00  0.64715E+02    0.47500E+00  0.47500E+00 -0.95000E+00  0.00000E+00  0.00000E+00  0.00000E+00    0.22094E+02  0.17256E+02 -0.39350E+02 -0.69587E+00  0.25450E+01  0.14896E+02      982.00
  0.91371E+00  0.64880E+02    0.48750E+00  0.48750E+00 -0.97500E+00  0.00000E+00  0.00000E+00  0.00000E+00    0.22128E+02  0.17270E+02 -0.39398E+02 -0.75204E+00  0.24463E+01  0.15052E+02      982.00
  0.93648E+00  0.65002E+02    0.50000E+00  0.50000E+00 -0.10000E+01  0.00000E+00  0.00000E+00  0.00000E+00    0.22153E+02  0.17270E+02 -0.39423E+02 -0.82127E+00  0.23450E+01  0.15187E+02      982.00
