          Evm          Svm            E11          E22          E33          E23          E13          E12         SDEV11       SDEV22       SDEV33       SDEV23       SDEV13       SDEV12      TEMP
  0.00000E+00  0.61268E+02    0.00000E+00  0.00000E+00  0.00000E+00  0.00000E+00  0.00000E+00  0.00000E+00    0.19012E+02  0.18967E+02 -0.37979E+02 -0.46589E+01  0.45609E+01  0.11267E+02      982.00
  0.23246E-01  0.61473E+02    0.12500E-01  0.12500E-01 -0.25000E-01  0.00000E+00  0.00000E+00  0.00000E+00    0.19239E+02  0.18766E+02 -0.38005E+02 -0.45364E+01  0.45929E+01  0.11601E+02      982.00
  0.46430E-01  0.61660E+02    0.25000E-01  0.25000E-01 -0.50000E-01  0.00000E+00  0.00000E+00  0.00000E+00    0.19398E+02  0.18621E+02 -0.38019E+02 -0.44517E+01  0.46006E+01  0.11921E+02      982.00
  0.69552E-01  0.61760E+02    0.37500E-01  0.37500E-01 -0.75000E-01  0.00000E+00  0.00000E+00  0.00000E+00    0.19503E+02  0.18493E+02 -0.37996E+02 -0.43594E+01  0.45774E+01  0.12183E+02      982.00
  0.92623E-01  0.61818E+02    0.50000E-01  0.50000E-01 -0.10000E+00  0.00000E+00  0.00000E+00  0.00000E+00    0.19572E+02  0.18403E+02 -0.37975E+02 -0.42205E+01  0.44788E+01  0.12411E+02      982.00
  0.11566E+00  0.61881E+02    0.62500E-01  0.62500E-01 -0.12500E+00  0.00000E+00  0.00000E+00  0.00000E+00    0.19623E+02  0.18354E+02 -0.37977E+02 -0.40274E+01  0.43005E+01  0.12634E+02      982.00
  0.13867E+00  0.61965E+02    0.75000E-01  0.75000E-01 -0.15000E+00  0.00000E+00  0.00000E+00  0.00000E+00    0.19672E+02  0.18335E+02 -0.38006E+02 -0.37838E+01  0.40589E+01  0.12856E+02      982.00
  0.16167E+00  0.62075E+02    0.87500E-01  0.87500E-01 -0.17500E+00  0.00000E+00  0.00000E+00  0.00000E+00    0.19715E+02  0.18338E+02 -0.38054E+02 -0.35133E+01  0.37797E+01  0.13087E+02      982.00
  0.18466E+00  0.62213E+02    0.10000E+00  0.10000E+00 -0.20000E+00  0.00000E+00  0.00000E+00  0.00000E+00    0.19755E+02  0.18361E+02 -0.38116E+02 -0.32361E+01  0.34866E+01  0.13320E+02      982.00
  0.20764E+00  0.62378E+02    0.11250E+00  0.11250E+00 -0.22500E+00  0.00000E+00  0.00000E+00  0.00000E+00    0.19791E+02  0.18399E+02 -0.38190E+02 -0.29707E+01  0.32007E+01  0.13550E+02      982.00
  0.23060E+00  0.62566E+02    0.12500E+00  0.12500E+00 -0.25000E+00  0.00000E+00  0.00000E+00  0.00000E+00    0.19824E+02  0.18447E+02 -0.38270E+02 -0.27293E+01  0.29360E+01  0.13778E+02      982.00
  0.25353E+00  0.62773E+02    0.13750E+00  0.13750E+00 -0.27500E+00  0.00000E+00  0.00000E+00  0.00000E+00    0.19850E+02  0.18507E+02 -0.38357E+02 -0.25134E+01  0.26915E+01  0.14001E+02      982.00
  0.27645E+00  0.62998E+02    0.15000E+00  0.15000E+00 -0.30000E+00  0.00000E+00  0.00000E+00  0.00000E+00    0.19875E+02  0.18569E+02 -0.38444E+02 -0.23333E+01  0.24851E+01  0.14226E+02      982.00
  0.29933E+00  0.63231E+02    0.16250E+00  0.16250E+00 -0.32500E+00  0.00000E+00  0.00000E+00  0.00000E+00    0.19898E+02  0.18633E+02 -0.38531E+02 -0.21810E+01  0.23067E+01  0.14449E+02      982.00
  0.32218E+00  0.63470E+02    0.17500E+00  0.17500E+00 -0.35000E+00  0.00000E+00  0.00000E+00  0.00000E+00    0.19918E+02  0.18698E+02 -0.38616E+02 -0.20536E+01  0.21536E+01  0.14669E+02      982.00
  0.34500E+00  0.63711E+02    0.18750E+00  0.18750E+00 -0.37500E+00  0.00000E+00  0.00000E+00  0.00000E+00    0.19936E+02  0.18763E+02 -0.38698E+02 -0.19480E+01  0.20228E+01  0.14886E+02      982.00
  0.36778E+00  0.63946E+02    0.20000E+00  0.20000E+00 -0.40000E+00  0.00000E+00  0.00000E+00  0.00000E+00    0.19952E+02  0.18823E+02 -0.38775E+02 -0.18626E+01  0.19137E+01  0.15098E+02      982.00
  0.39052E+00  0.64179E+02    0.21250E+00  0.21250E+00 -0.42500E+00  0.00000E+00  0.00000E+00  0.00000E+00    0.19960E+02  0.18891E+02 -0.38851E+02 -0.17928E+01  0.18154E+01  0.15302E+02      982.00
  0.41322E+00  0.64406E+02    0.22500E+00  0.22500E+00 -0.45000E+00  0.00000E+00  0.00000E+00  0.00000E+00    0.19972E+02  0.18948E+02 -0.38920E+02 -0.17360E+01  0.17354E+01  0.15503E+02      982.00
  0.43588E+00  0.64625E+02    0.23750E+00  0.23750E+00 -0.47500E+00  0.00000E+00  0.00000E+00  0.00000E+00    0.19983E+02  0.19002E+02 -0.38985E+02 -0.16904E+01  0.16683E+01  0.15696E+02      982.00
  0.45850E+00  0.64835E+02    0.25000E+00  0.25000E+00 -0.50000E+00  0.00000E+00  0.00000E+00  0.00000E+00    0.19994E+02  0.19051E+02 -0.39046E+02 -0.16547E+01  0.16121E+01  0.15881E+02      982.00
  0.48108E+00  0.65035E+02    0.26250E+00  0.26250E+00 -0.52500E+00  0.00000E+00  0.00000E+00  0.00000E+00    0.19998E+02  0.19104E+02 -0.39103E+02 -0.16272E+01  0.15600E+01  0.16057E+02      982.00
  0.50363E+00  0.65225E+02    0.27500E+00  0.27500E+00 -0.55000E+00  0.00000E+00  0.00000E+00  0.00000E+00    0.20008E+02  0.19147E+02 -0.39156E+02 -0.16074E+01  0.15214E+01  0.16222E+02      982.00
  0.52614E+00  0.65391E+02    0.28750E+00  0.28750E+00 -0.57500E+00  0.00000E+00  0.00000E+00  0.00000E+00    0.20018E+02  0.19182E+02 -0.39199E+02 -0.15962E+01  0.14938E+01  0.16368E+02      982.00
  0.54862E+00  0.65558E+02    0.30000E+00  0.30000E+00 -0.60000E+00  0.00000E+00  0.00000E+00  0.00000E+00    0.20028E+02  0.19215E+02 -0.39243E+02 -0.15867E+01  0.14682E+01  0.16515E+02      982.00
  0.57107E+00  0.65711E+02    0.31250E+00  0.31250E+00 -0.62500E+00  0.00000E+00  0.00000E+00  0.00000E+00    0.20032E+02  0.19251E+02 -0.39283E+02 -0.15808E+01  0.14417E+01  0.16650E+02      982.00
  0.59349E+00  0.65864E+02    0.32500E+00  0.32500E+00 -0.65000E+00  0.00000E+00  0.00000E+00  0.00000E+00    0.20035E+02  0.19283E+02 -0.39319E+02 -0.15773E+01  0.14178E+01  0.16791E+02      982.00
  0.61587E+00  0.66000E+02    0.33750E+00  0.33750E+00 -0.67500E+00  0.00000E+00  0.00000E+00  0.00000E+00    0.20046E+02  0.19307E+02 -0.39353E+02 -0.15805E+01  0.14061E+01  0.16909E+02      982.00
  0.63823E+00  0.66126E+02    0.35000E+00  0.35000E+00 -0.70000E+00  0.00000E+00  0.00000E+00  0.00000E+00    0.20058E+02  0.19326E+02 -0.39384E+02 -0.15856E+01  0.13984E+01  0.17019E+02      982.00
  0.66057E+00  0.66232E+02    0.36250E+00  0.36250E+00 -0.72500E+00  0.00000E+00  0.00000E+00  0.00000E+00    0.20079E+02  0.19329E+02 -0.39408E+02 -0.15934E+01  0.14048E+01  0.17112E+02      982.00
  0.68288E+00  0.66363E+02    0.37500E+00  0.37500E+00 -0.75000E+00  0.00000E+00  0.00000E+00  0.00000E+00    0.20085E+02  0.19360E+02 -0.39444E+02 -0.15958E+01  0.13823E+01  0.17220E+02      982.00
  0.70517E+00  0.66463E+02    0.38750E+00  0.38750E+00 -0.77500E+00  0.00000E+00  0.00000E+00  0.00000E+00    0.20095E+02  0.19373E+02 -0.39468E+02 -0.16074E+01  0.13801E+01  0.17308E+02      982.00
  0.72744E+00  0.66557E+02    0.40000E+00  0.40000E+00 -0.80000E+00  0.00000E+00  0.00000E+00  0.00000E+00    0.20108E+02  0.19381E+02 -0.39489E+02 -0.16188E+01  0.13807E+01  0.17389E+02      982.00
  0.74969E+00  0.66644E+02    0.41250E+00  0.41250E+00 -0.82500E+00  0.00000E+00  0.00000E+00  0.00000E+00    0.20123E+02  0.19387E+02 -0.39509E+02 -0.16308E+01  0.13828E+01  0.17465E+02      982.00
  0.77192E+00  0.66725E+02    0.42500E+00  0.42500E+00 -0.85000E+00  0.00000E+00  0.00000E+00  0.00000E+00    0.20137E+02  0.19390E+02 -0.39528E+02 -0.16431E+01  0.13858E+01  0.17535E+02      982.00
  0.79413E+00  0.66801E+02    0.43750E+00  0.43750E+00 -0.87500E+00  0.00000E+00  0.00000E+00  0.00000E+00    0.20152E+02  0.19393E+02 -0.39545E+02 -0.16558E+01  0.13896E+01  0.17601E+02      982.00
  0.81633E+00  0.66905E+02    0.45000E+00  0.45000E+00 -0.90000E+00  0.00000E+00  0.00000E+00  0.00000E+00    0.20170E+02  0.19392E+02 -0.39562E+02 -0.16776E+01  0.13957E+01  0.17701E+02      982.00
  0.83851E+00  0.66970E+02    0.46250E+00  0.46250E+00 -0.92500E+00  0.00000E+00  0.00000E+00  0.00000E+00    0.20185E+02  0.19391E+02 -0.39576E+02 -0.16929E+01  0.14002E+01  0.17758E+02      982.00
  0.86067E+00  0.67029E+02    0.47500E+00  0.47500E+00 -0.95000E+00  0.00000E+00  0.00000E+00  0.00000E+00    0.20201E+02  0.19388E+02 -0.39589E+02 -0.17068E+01  0.14056E+01  0.17808E+02      982.00
  0.88282E+00  0.67084E+02    0.48750E+00  0.48750E+00 -0.97500E+00  0.00000E+00  0.00000E+00  0.00000E+00    0.20217E+02  0.19384E+02 -0.39601E+02 -0.17200E+01  0.14111E+01  0.17855E+02      982.00
  0.90495E+00  0.67136E+02    0.50000E+00  0.50000E+00 -0.10000E+01  0.00000E+00  0.00000E+00  0.00000E+00    0.20234E+02  0.19378E+02 -0.39612E+02 -0.17328E+01  0.14167E+01  0.17899E+02      982.00
