          Evm          Svm            E11          E22          E33          E23          E13          E12         SDEV11       SDEV22       SDEV33       SDEV23       SDEV13       SDEV12      TEMP
  0.00000E+00  0.58323E+02    0.00000E+00  0.00000E+00  0.00000E+00  0.00000E+00  0.00000E+00  0.00000E+00    0.20495E+02  0.15374E+02 -0.35869E+02  0.61331E+01  0.67426E+01 -0.89051E+01      982.00
  0.23063E-01  0.58487E+02    0.12500E-01  0.12500E-01 -0.25000E-01  0.00000E+00  0.00000E+00  0.00000E+00    0.20484E+02  0.15571E+02 -0.36055E+02  0.61276E+01  0.66559E+01 -0.87973E+01      982.00
  0.46180E-01  0.58667E+02    0.25000E-01  0.25000E-01 -0.50000E-01  0.00000E+00  0.00000E+00  0.00000E+00    0.20516E+02  0.15728E+02 -0.36244E+02  0.61127E+01  0.65677E+01 -0.87084E+01      982.00
  0.69347E-01  0.58883E+02    0.37500E-01  0.37500E-01 -0.75000E-01  0.00000E+00  0.00000E+00  0.00000E+00    0.20587E+02  0.15857E+02 -0.36444E+02  0.60877E+01  0.64928E+01 -0.86478E+01      982.00
  0.92557E-01  0.59118E+02    0.50000E-01  0.50000E-01 -0.10000E+00  0.00000E+00  0.00000E+00  0.00000E+00    0.20677E+02  0.15974E+02 -0.36651E+02  0.60534E+01  0.64193E+01 -0.86085E+01      982.00
  0.11581E+00  0.59380E+02    0.62500E-01  0.62500E-01 -0.12500E+00  0.00000E+00  0.00000E+00  0.00000E+00    0.20790E+02  0.16080E+02 -0.36869E+02  0.60101E+01  0.63515E+01 -0.85917E+01      982.00
  0.13909E+00  0.59683E+02    0.75000E-01  0.75000E-01 -0.15000E+00  0.00000E+00  0.00000E+00  0.00000E+00    0.20923E+02  0.16183E+02 -0.37106E+02  0.59617E+01  0.62921E+01 -0.85988E+01      982.00
  0.16240E+00  0.60012E+02    0.87500E-01  0.87500E-01 -0.17500E+00  0.00000E+00  0.00000E+00  0.00000E+00    0.21067E+02  0.16290E+02 -0.37356E+02  0.59103E+01  0.62358E+01 -0.86231E+01      982.00
  0.18575E+00  0.60367E+02    0.10000E+00  0.10000E+00 -0.20000E+00  0.00000E+00  0.00000E+00  0.00000E+00    0.21215E+02  0.16403E+02 -0.37619E+02  0.58579E+01  0.61819E+01 -0.86614E+01      982.00
  0.20912E+00  0.60799E+02    0.11250E+00  0.11250E+00 -0.22500E+00  0.00000E+00  0.00000E+00  0.00000E+00    0.21389E+02  0.16536E+02 -0.37925E+02  0.58068E+01  0.61338E+01 -0.87307E+01      982.00
  0.23251E+00  0.61191E+02    0.12500E+00  0.12500E+00 -0.25000E+00  0.00000E+00  0.00000E+00  0.00000E+00    0.21536E+02  0.16673E+02 -0.38209E+02  0.57533E+01  0.60835E+01 -0.87855E+01      982.00
  0.25592E+00  0.61599E+02    0.13750E+00  0.13750E+00 -0.27500E+00  0.00000E+00  0.00000E+00  0.00000E+00    0.21673E+02  0.16827E+02 -0.38500E+02  0.57050E+01  0.60375E+01 -0.88447E+01      982.00
  0.27936E+00  0.62010E+02    0.15000E+00  0.15000E+00 -0.30000E+00  0.00000E+00  0.00000E+00  0.00000E+00    0.21798E+02  0.16997E+02 -0.38795E+02  0.56594E+01  0.59937E+01 -0.89036E+01      982.00
  0.30282E+00  0.62422E+02    0.16250E+00  0.16250E+00 -0.32500E+00  0.00000E+00  0.00000E+00  0.00000E+00    0.21907E+02  0.17182E+02 -0.39089E+02  0.56160E+01  0.59524E+01 -0.89600E+01      982.00
  0.32630E+00  0.62798E+02    0.17500E+00  0.17500E+00 -0.35000E+00  0.00000E+00  0.00000E+00  0.00000E+00    0.22000E+02  0.17361E+02 -0.39362E+02  0.55723E+01  0.59151E+01 -0.90071E+01      982.00
  0.34981E+00  0.63177E+02    0.18750E+00  0.18750E+00 -0.37500E+00  0.00000E+00  0.00000E+00  0.00000E+00    0.22085E+02  0.17550E+02 -0.39634E+02  0.55297E+01  0.58825E+01 -0.90518E+01      982.00
  0.37334E+00  0.63565E+02    0.20000E+00  0.20000E+00 -0.40000E+00  0.00000E+00  0.00000E+00  0.00000E+00    0.22164E+02  0.17749E+02 -0.39913E+02  0.54873E+01  0.58561E+01 -0.90979E+01      982.00
  0.39688E+00  0.63938E+02    0.21250E+00  0.21250E+00 -0.42500E+00  0.00000E+00  0.00000E+00  0.00000E+00    0.22220E+02  0.17964E+02 -0.40184E+02  0.54448E+01  0.58302E+01 -0.91361E+01      982.00
  0.42045E+00  0.64294E+02    0.22500E+00  0.22500E+00 -0.45000E+00  0.00000E+00  0.00000E+00  0.00000E+00    0.22259E+02  0.18185E+02 -0.40445E+02  0.54023E+01  0.58073E+01 -0.91669E+01      982.00
  0.44404E+00  0.64632E+02    0.23750E+00  0.23750E+00 -0.47500E+00  0.00000E+00  0.00000E+00  0.00000E+00    0.22283E+02  0.18411E+02 -0.40694E+02  0.53592E+01  0.57872E+01 -0.91903E+01      982.00
  0.46765E+00  0.64950E+02    0.25000E+00  0.25000E+00 -0.50000E+00  0.00000E+00  0.00000E+00  0.00000E+00    0.22291E+02  0.18640E+02 -0.40931E+02  0.53154E+01  0.57699E+01 -0.92064E+01      982.00
  0.49128E+00  0.65248E+02    0.26250E+00  0.26250E+00 -0.52500E+00  0.00000E+00  0.00000E+00  0.00000E+00    0.22286E+02  0.18870E+02 -0.41156E+02  0.52706E+01  0.57550E+01 -0.92153E+01      982.00
  0.51494E+00  0.65517E+02    0.27500E+00  0.27500E+00 -0.55000E+00  0.00000E+00  0.00000E+00  0.00000E+00    0.22270E+02  0.19091E+02 -0.41361E+02  0.52246E+01  0.57409E+01 -0.92187E+01      982.00
  0.53861E+00  0.65778E+02    0.28750E+00  0.28750E+00 -0.57500E+00  0.00000E+00  0.00000E+00  0.00000E+00    0.22241E+02  0.19321E+02 -0.41562E+02  0.51780E+01  0.57306E+01 -0.92149E+01      982.00
  0.56230E+00  0.66020E+02    0.30000E+00  0.30000E+00 -0.60000E+00  0.00000E+00  0.00000E+00  0.00000E+00    0.22201E+02  0.19550E+02 -0.41750E+02  0.51305E+01  0.57221E+01 -0.92049E+01      982.00
  0.58602E+00  0.66243E+02    0.31250E+00  0.31250E+00 -0.62500E+00  0.00000E+00  0.00000E+00  0.00000E+00    0.22150E+02  0.19776E+02 -0.41926E+02  0.50817E+01  0.57153E+01 -0.91889E+01      982.00
  0.60975E+00  0.66441E+02    0.32500E+00  0.32500E+00 -0.65000E+00  0.00000E+00  0.00000E+00  0.00000E+00    0.22075E+02  0.20013E+02 -0.42088E+02  0.50354E+01  0.57090E+01 -0.91614E+01      982.00
  0.63351E+00  0.66632E+02    0.33750E+00  0.33750E+00 -0.67500E+00  0.00000E+00  0.00000E+00  0.00000E+00    0.22007E+02  0.20235E+02 -0.42242E+02  0.49852E+01  0.57046E+01 -0.91352E+01      982.00
  0.65728E+00  0.66807E+02    0.35000E+00  0.35000E+00 -0.70000E+00  0.00000E+00  0.00000E+00  0.00000E+00    0.21933E+02  0.20453E+02 -0.42386E+02  0.49337E+01  0.57020E+01 -0.91047E+01      982.00
  0.68107E+00  0.66967E+02    0.36250E+00  0.36250E+00 -0.72500E+00  0.00000E+00  0.00000E+00  0.00000E+00    0.21852E+02  0.20668E+02 -0.42519E+02  0.48814E+01  0.57006E+01 -0.90701E+01      982.00
  0.70488E+00  0.67114E+02    0.37500E+00  0.37500E+00 -0.75000E+00  0.00000E+00  0.00000E+00  0.00000E+00    0.21764E+02  0.20879E+02 -0.42644E+02  0.48286E+01  0.57003E+01 -0.90316E+01      982.00
  0.72871E+00  0.67248E+02    0.38750E+00  0.38750E+00 -0.77500E+00  0.00000E+00  0.00000E+00  0.00000E+00    0.21672E+02  0.21087E+02 -0.42759E+02  0.47754E+01  0.57010E+01 -0.89896E+01      982.00
  0.75256E+00  0.67364E+02    0.40000E+00  0.40000E+00 -0.80000E+00  0.00000E+00  0.00000E+00  0.00000E+00    0.21551E+02  0.21315E+02 -0.42866E+02  0.47168E+01  0.57009E+01 -0.89299E+01      982.00
  0.77642E+00  0.67475E+02    0.41250E+00  0.41250E+00 -0.82500E+00  0.00000E+00  0.00000E+00  0.00000E+00    0.21449E+02  0.21516E+02 -0.42965E+02  0.46628E+01  0.57031E+01 -0.88809E+01      982.00
  0.80030E+00  0.67575E+02    0.42500E+00  0.42500E+00 -0.85000E+00  0.00000E+00  0.00000E+00  0.00000E+00    0.21343E+02  0.21713E+02 -0.43056E+02  0.46082E+01  0.57067E+01 -0.88294E+01      982.00
  0.82419E+00  0.67666E+02    0.43750E+00  0.43750E+00 -0.87500E+00  0.00000E+00  0.00000E+00  0.00000E+00    0.21234E+02  0.21906E+02 -0.43139E+02  0.45535E+01  0.57111E+01 -0.87751E+01      982.00
  0.84810E+00  0.67748E+02    0.45000E+00  0.45000E+00 -0.90000E+00  0.00000E+00  0.00000E+00  0.00000E+00    0.21121E+02  0.22096E+02 -0.43217E+02  0.44987E+01  0.57163E+01 -0.87182E+01      982.00
  0.87202E+00  0.67748E+02    0.46250E+00  0.46250E+00 -0.92500E+00  0.00000E+00  0.00000E+00  0.00000E+00    0.21007E+02  0.22244E+02 -0.43251E+02  0.44147E+01  0.56877E+01 -0.86458E+01      982.00
  0.89596E+00  0.67754E+02    0.47500E+00  0.47500E+00 -0.95000E+00  0.00000E+00  0.00000E+00  0.00000E+00    0.20889E+02  0.22394E+02 -0.43283E+02  0.43412E+01  0.56692E+01 -0.85760E+01      982.00
  0.91991E+00  0.67757E+02    0.48750E+00  0.48750E+00 -0.97500E+00  0.00000E+00  0.00000E+00  0.00000E+00    0.20769E+02  0.22543E+02 -0.43313E+02  0.42704E+01  0.56523E+01 -0.85062E+01      982.00
  0.94389E+00  0.67767E+02    0.50000E+00  0.50000E+00 -0.10000E+01  0.00000E+00  0.00000E+00  0.00000E+00    0.20664E+02  0.22676E+02 -0.43340E+02  0.42132E+01  0.56423E+01 -0.84520E+01      982.00
