          Evm          Svm            E11          E22          E33          E23          E13          E12         SDEV11       SDEV22       SDEV33       SDEV23       SDEV13       SDEV12      TEMP
  0.00000E+00  0.67990E+02    0.00000E+00  0.00000E+00  0.00000E+00  0.00000E+00  0.00000E+00  0.00000E+00    0.22099E+02  0.22682E+02 -0.44781E+02 -0.16322E+00 -0.23421E+01 -0.55939E+01      982.00
  0.24699E-01  0.67769E+02    0.12500E-01  0.12500E-01 -0.25000E-01  0.00000E+00  0.00000E+00  0.00000E+00    0.21833E+02  0.22826E+02 -0.44658E+02 -0.20281E+00 -0.23274E+01 -0.54237E+01      982.00
  0.49410E-01  0.67617E+02    0.25000E-01  0.25000E-01 -0.50000E-01  0.00000E+00  0.00000E+00  0.00000E+00    0.21597E+02  0.22999E+02 -0.44597E+02 -0.23041E+00 -0.22932E+01 -0.51546E+01      982.00
  0.74144E-01  0.67509E+02    0.37500E-01  0.37500E-01 -0.75000E-01  0.00000E+00  0.00000E+00  0.00000E+00    0.21391E+02  0.23189E+02 -0.44580E+02 -0.25912E+00 -0.22317E+01 -0.47737E+01      982.00
  0.98907E-01  0.67422E+02    0.50000E-01  0.50000E-01 -0.10000E+00  0.00000E+00  0.00000E+00  0.00000E+00    0.21212E+02  0.23371E+02 -0.44583E+02 -0.31238E+00 -0.21494E+01 -0.43151E+01      982.00
  0.12370E+00  0.67364E+02    0.62500E-01  0.62500E-01 -0.12500E+00  0.00000E+00  0.00000E+00  0.00000E+00    0.21067E+02  0.23531E+02 -0.44598E+02 -0.41988E+00 -0.20806E+01 -0.38538E+01      982.00
  0.14853E+00  0.67358E+02    0.75000E-01  0.75000E-01 -0.15000E+00  0.00000E+00  0.00000E+00  0.00000E+00    0.20955E+02  0.23676E+02 -0.44631E+02 -0.59583E+00 -0.20588E+01 -0.34590E+01      982.00
  0.17338E+00  0.67409E+02    0.87500E-01  0.87500E-01 -0.17500E+00  0.00000E+00  0.00000E+00  0.00000E+00    0.20867E+02  0.23817E+02 -0.44684E+02 -0.81594E+00 -0.20839E+01 -0.31575E+01      982.00
  0.19824E+00  0.67506E+02    0.10000E+00  0.10000E+00 -0.20000E+00  0.00000E+00  0.00000E+00  0.00000E+00    0.20796E+02  0.23957E+02 -0.44752E+02 -0.10491E+01 -0.21465E+01 -0.29585E+01      982.00
  0.22310E+00  0.67640E+02    0.11250E+00  0.11250E+00 -0.22500E+00  0.00000E+00  0.00000E+00  0.00000E+00    0.20733E+02  0.24100E+02 -0.44833E+02 -0.12729E+01 -0.22314E+01 -0.28503E+01      982.00
  0.24795E+00  0.67798E+02    0.12500E+00  0.12500E+00 -0.25000E+00  0.00000E+00  0.00000E+00  0.00000E+00    0.20674E+02  0.24248E+02 -0.44921E+02 -0.14750E+01 -0.23299E+01 -0.28192E+01      982.00
  0.27280E+00  0.67973E+02    0.13750E+00  0.13750E+00 -0.27500E+00  0.00000E+00  0.00000E+00  0.00000E+00    0.20608E+02  0.24407E+02 -0.45015E+02 -0.16530E+01 -0.24313E+01 -0.28451E+01      982.00
  0.29763E+00  0.68158E+02    0.15000E+00  0.15000E+00 -0.30000E+00  0.00000E+00  0.00000E+00  0.00000E+00    0.20535E+02  0.24575E+02 -0.45110E+02 -0.18066E+01 -0.25343E+01 -0.29229E+01      982.00
  0.32245E+00  0.68344E+02    0.16250E+00  0.16250E+00 -0.32500E+00  0.00000E+00  0.00000E+00  0.00000E+00    0.20463E+02  0.24740E+02 -0.45203E+02 -0.19332E+01 -0.26386E+01 -0.30342E+01      982.00
  0.34725E+00  0.68532E+02    0.17500E+00  0.17500E+00 -0.35000E+00  0.00000E+00  0.00000E+00  0.00000E+00    0.20373E+02  0.24920E+02 -0.45292E+02 -0.20447E+01 -0.27398E+01 -0.31822E+01      982.00
  0.37204E+00  0.68708E+02    0.18750E+00  0.18750E+00 -0.37500E+00  0.00000E+00  0.00000E+00  0.00000E+00    0.20284E+02  0.25090E+02 -0.45374E+02 -0.21327E+01 -0.28384E+01 -0.33341E+01      982.00
  0.39680E+00  0.68868E+02    0.20000E+00  0.20000E+00 -0.40000E+00  0.00000E+00  0.00000E+00  0.00000E+00    0.20193E+02  0.25253E+02 -0.45445E+02 -0.22025E+01 -0.29310E+01 -0.34812E+01      982.00
  0.42155E+00  0.69030E+02    0.21250E+00  0.21250E+00 -0.42500E+00  0.00000E+00  0.00000E+00  0.00000E+00    0.20074E+02  0.25438E+02 -0.45511E+02 -0.22685E+01 -0.30214E+01 -0.36669E+01      982.00
  0.44627E+00  0.69172E+02    0.22500E+00  0.22500E+00 -0.45000E+00  0.00000E+00  0.00000E+00  0.00000E+00    0.19960E+02  0.25607E+02 -0.45566E+02 -0.23197E+01 -0.31098E+01 -0.38331E+01      982.00
  0.47098E+00  0.69301E+02    0.23750E+00  0.23750E+00 -0.47500E+00  0.00000E+00  0.00000E+00  0.00000E+00    0.19838E+02  0.25773E+02 -0.45612E+02 -0.23626E+01 -0.31954E+01 -0.39970E+01      982.00
  0.49566E+00  0.69417E+02    0.25000E+00  0.25000E+00 -0.50000E+00  0.00000E+00  0.00000E+00  0.00000E+00    0.19709E+02  0.25938E+02 -0.45648E+02 -0.23986E+01 -0.32779E+01 -0.41562E+01      982.00
  0.52032E+00  0.69521E+02    0.26250E+00  0.26250E+00 -0.52500E+00  0.00000E+00  0.00000E+00  0.00000E+00    0.19574E+02  0.26101E+02 -0.45675E+02 -0.24290E+01 -0.33573E+01 -0.43093E+01      982.00
  0.54495E+00  0.69613E+02    0.27500E+00  0.27500E+00 -0.55000E+00  0.00000E+00  0.00000E+00  0.00000E+00    0.19433E+02  0.26261E+02 -0.45695E+02 -0.24544E+01 -0.34337E+01 -0.44548E+01      982.00
  0.56957E+00  0.69694E+02    0.28750E+00  0.28750E+00 -0.57500E+00  0.00000E+00  0.00000E+00  0.00000E+00    0.19288E+02  0.26420E+02 -0.45707E+02 -0.24756E+01 -0.35071E+01 -0.45920E+01      982.00
  0.59416E+00  0.69766E+02    0.30000E+00  0.30000E+00 -0.60000E+00  0.00000E+00  0.00000E+00  0.00000E+00    0.19138E+02  0.26576E+02 -0.45714E+02 -0.24932E+01 -0.35776E+01 -0.47202E+01      982.00
  0.61873E+00  0.69828E+02    0.31250E+00  0.31250E+00 -0.62500E+00  0.00000E+00  0.00000E+00  0.00000E+00    0.18985E+02  0.26730E+02 -0.45714E+02 -0.25076E+01 -0.36450E+01 -0.48392E+01      982.00
  0.64328E+00  0.69891E+02    0.32500E+00  0.32500E+00 -0.65000E+00  0.00000E+00  0.00000E+00  0.00000E+00    0.18809E+02  0.26902E+02 -0.45711E+02 -0.25212E+01 -0.37095E+01 -0.49658E+01      982.00
  0.66781E+00  0.69937E+02    0.33750E+00  0.33750E+00 -0.67500E+00  0.00000E+00  0.00000E+00  0.00000E+00    0.18650E+02  0.27052E+02 -0.45702E+02 -0.25302E+01 -0.37703E+01 -0.50634E+01      982.00
  0.69231E+00  0.69977E+02    0.35000E+00  0.35000E+00 -0.70000E+00  0.00000E+00  0.00000E+00  0.00000E+00    0.18492E+02  0.27198E+02 -0.45690E+02 -0.25370E+01 -0.38290E+01 -0.51518E+01      982.00
  0.71680E+00  0.70011E+02    0.36250E+00  0.36250E+00 -0.72500E+00  0.00000E+00  0.00000E+00  0.00000E+00    0.18332E+02  0.27342E+02 -0.45674E+02 -0.25421E+01 -0.38853E+01 -0.52313E+01      982.00
  0.74126E+00  0.70040E+02    0.37500E+00  0.37500E+00 -0.75000E+00  0.00000E+00  0.00000E+00  0.00000E+00    0.18173E+02  0.27484E+02 -0.45657E+02 -0.25451E+01 -0.39386E+01 -0.53025E+01      982.00
  0.76571E+00  0.70064E+02    0.38750E+00  0.38750E+00 -0.77500E+00  0.00000E+00  0.00000E+00  0.00000E+00    0.18013E+02  0.27624E+02 -0.45637E+02 -0.25466E+01 -0.39893E+01 -0.53656E+01      982.00
  0.79014E+00  0.70085E+02    0.40000E+00  0.40000E+00 -0.80000E+00  0.00000E+00  0.00000E+00  0.00000E+00    0.17855E+02  0.27761E+02 -0.45615E+02 -0.25467E+01 -0.40375E+01 -0.54209E+01      982.00
  0.81454E+00  0.70101E+02    0.41250E+00  0.41250E+00 -0.82500E+00  0.00000E+00  0.00000E+00  0.00000E+00    0.17697E+02  0.27896E+02 -0.45593E+02 -0.25456E+01 -0.40831E+01 -0.54690E+01      982.00
  0.83893E+00  0.70115E+02    0.42500E+00  0.42500E+00 -0.85000E+00  0.00000E+00  0.00000E+00  0.00000E+00    0.17541E+02  0.28028E+02 -0.45569E+02 -0.25433E+01 -0.41263E+01 -0.55103E+01      982.00
  0.86330E+00  0.70133E+02    0.43750E+00  0.43750E+00 -0.87500E+00  0.00000E+00  0.00000E+00  0.00000E+00    0.17363E+02  0.28180E+02 -0.45543E+02 -0.25402E+01 -0.41712E+01 -0.55497E+01      982.00
  0.88766E+00  0.70137E+02    0.45000E+00  0.45000E+00 -0.90000E+00  0.00000E+00  0.00000E+00  0.00000E+00    0.17232E+02  0.28288E+02 -0.45520E+02 -0.25350E+01 -0.42022E+01 -0.55732E+01      982.00
  0.91199E+00  0.70146E+02    0.46250E+00  0.46250E+00 -0.92500E+00  0.00000E+00  0.00000E+00  0.00000E+00    0.17058E+02  0.28434E+02 -0.45491E+02 -0.25277E+01 -0.42419E+01 -0.55981E+01      982.00
  0.93631E+00  0.70099E+02    0.47500E+00  0.47500E+00 -0.95000E+00  0.00000E+00  0.00000E+00  0.00000E+00    0.16910E+02  0.28526E+02 -0.45436E+02 -0.25089E+01 -0.42596E+01 -0.56064E+01      982.00
  0.96062E+00  0.70056E+02    0.48750E+00  0.48750E+00 -0.97500E+00  0.00000E+00  0.00000E+00  0.00000E+00    0.16766E+02  0.28618E+02 -0.45384E+02 -0.24955E+01 -0.42803E+01 -0.56116E+01      982.00
  0.98491E+00  0.70023E+02    0.50000E+00  0.50000E+00 -0.10000E+01  0.00000E+00  0.00000E+00  0.00000E+00    0.16648E+02  0.28695E+02 -0.45344E+02 -0.24855E+01 -0.42913E+01 -0.56104E+01      982.00
