          Evm          Svm            E11          E22          E33          E23          E13          E12         SDEV11       SDEV22       SDEV33       SDEV23       SDEV13       SDEV12      TEMP
  0.00000E+00  0.61216E+02    0.00000E+00  0.00000E+00  0.00000E+00  0.00000E+00  0.00000E+00  0.00000E+00    0.26732E+02  0.11430E+02 -0.38162E+02  0.80023E+01 -0.28160E+01 -0.51330E+01      982.00
  0.23378E-01  0.61115E+02    0.12500E-01  0.12500E-01 -0.25000E-01  0.00000E+00  0.00000E+00  0.00000E+00    0.26755E+02  0.11408E+02 -0.38164E+02  0.78635E+01 -0.27688E+01 -0.49276E+01      982.00
  0.46795E-01  0.61100E+02    0.25000E-01  0.25000E-01 -0.50000E-01  0.00000E+00  0.00000E+00  0.00000E+00    0.26834E+02  0.11368E+02 -0.38202E+02  0.77335E+01 -0.27355E+01 -0.47723E+01      982.00
  0.70241E-01  0.61128E+02    0.37500E-01  0.37500E-01 -0.75000E-01  0.00000E+00  0.00000E+00  0.00000E+00    0.26927E+02  0.11333E+02 -0.38260E+02  0.76183E+01 -0.26876E+01 -0.46494E+01      982.00
  0.93712E-01  0.61239E+02    0.50000E-01  0.50000E-01 -0.10000E+00  0.00000E+00  0.00000E+00  0.00000E+00    0.27062E+02  0.11303E+02 -0.38365E+02  0.75191E+01 -0.26111E+01 -0.45526E+01      982.00
  0.11721E+00  0.61397E+02    0.62500E-01  0.62500E-01 -0.12500E+00  0.00000E+00  0.00000E+00  0.00000E+00    0.27209E+02  0.11289E+02 -0.38498E+02  0.74303E+01 -0.25067E+01 -0.44832E+01      982.00
  0.14072E+00  0.61616E+02    0.75000E-01  0.75000E-01 -0.15000E+00  0.00000E+00  0.00000E+00  0.00000E+00    0.27378E+02  0.11287E+02 -0.38665E+02  0.73555E+01 -0.23809E+01 -0.44431E+01      982.00
  0.16425E+00  0.61857E+02    0.87500E-01  0.87500E-01 -0.17500E+00  0.00000E+00  0.00000E+00  0.00000E+00    0.27546E+02  0.11307E+02 -0.38853E+02  0.72740E+01 -0.22217E+01 -0.44164E+01      982.00
  0.18781E+00  0.62129E+02    0.10000E+00  0.10000E+00 -0.20000E+00  0.00000E+00  0.00000E+00  0.00000E+00    0.27717E+02  0.11344E+02 -0.39062E+02  0.71930E+01 -0.20405E+01 -0.44047E+01      982.00
  0.21138E+00  0.62420E+02    0.11250E+00  0.11250E+00 -0.22500E+00  0.00000E+00  0.00000E+00  0.00000E+00    0.27891E+02  0.11391E+02 -0.39282E+02  0.71135E+01 -0.18573E+01 -0.43997E+01      982.00
  0.23498E+00  0.62713E+02    0.12500E+00  0.12500E+00 -0.25000E+00  0.00000E+00  0.00000E+00  0.00000E+00    0.28054E+02  0.11454E+02 -0.39508E+02  0.70294E+01 -0.16618E+01 -0.43923E+01      982.00
  0.25861E+00  0.63010E+02    0.13750E+00  0.13750E+00 -0.27500E+00  0.00000E+00  0.00000E+00  0.00000E+00    0.28212E+02  0.11523E+02 -0.39735E+02  0.69481E+01 -0.14729E+01 -0.43779E+01      982.00
  0.28225E+00  0.63305E+02    0.15000E+00  0.15000E+00 -0.30000E+00  0.00000E+00  0.00000E+00  0.00000E+00    0.28363E+02  0.11600E+02 -0.39963E+02  0.68709E+01 -0.12877E+01 -0.43530E+01      982.00
  0.30593E+00  0.63606E+02    0.16250E+00  0.16250E+00 -0.32500E+00  0.00000E+00  0.00000E+00  0.00000E+00    0.28515E+02  0.11676E+02 -0.40190E+02  0.68069E+01 -0.11345E+01 -0.43165E+01      982.00
  0.32962E+00  0.63908E+02    0.17500E+00  0.17500E+00 -0.35000E+00  0.00000E+00  0.00000E+00  0.00000E+00    0.28664E+02  0.11751E+02 -0.40415E+02  0.67543E+01 -0.10041E+01 -0.42684E+01      982.00
  0.35334E+00  0.64204E+02    0.18750E+00  0.18750E+00 -0.37500E+00  0.00000E+00  0.00000E+00  0.00000E+00    0.28807E+02  0.11829E+02 -0.40636E+02  0.67084E+01 -0.88845E+00 -0.42099E+01      982.00
  0.37707E+00  0.64499E+02    0.20000E+00  0.20000E+00 -0.40000E+00  0.00000E+00  0.00000E+00  0.00000E+00    0.28949E+02  0.11903E+02 -0.40852E+02  0.66779E+01 -0.80196E+00 -0.41415E+01      982.00
  0.40082E+00  0.64784E+02    0.21250E+00  0.21250E+00 -0.42500E+00  0.00000E+00  0.00000E+00  0.00000E+00    0.29085E+02  0.11975E+02 -0.41060E+02  0.66559E+01 -0.73395E+00 -0.40643E+01      982.00
  0.42459E+00  0.65044E+02    0.22500E+00  0.22500E+00 -0.45000E+00  0.00000E+00  0.00000E+00  0.00000E+00    0.29205E+02  0.12048E+02 -0.41252E+02  0.66405E+01 -0.67151E+00 -0.39751E+01      982.00
  0.44837E+00  0.65305E+02    0.23750E+00  0.23750E+00 -0.47500E+00  0.00000E+00  0.00000E+00  0.00000E+00    0.29326E+02  0.12116E+02 -0.41442E+02  0.66318E+01 -0.63342E+00 -0.38834E+01      982.00
  0.47217E+00  0.65550E+02    0.25000E+00  0.25000E+00 -0.50000E+00  0.00000E+00  0.00000E+00  0.00000E+00    0.29438E+02  0.12183E+02 -0.41621E+02  0.66269E+01 -0.60687E+00 -0.37861E+01      982.00
  0.49598E+00  0.65780E+02    0.26250E+00  0.26250E+00 -0.52500E+00  0.00000E+00  0.00000E+00  0.00000E+00    0.29542E+02  0.12247E+02 -0.41789E+02  0.66249E+01 -0.58949E+00 -0.36840E+01      982.00
  0.51980E+00  0.65983E+02    0.27500E+00  0.27500E+00 -0.55000E+00  0.00000E+00  0.00000E+00  0.00000E+00    0.29629E+02  0.12312E+02 -0.41941E+02  0.66282E+01 -0.57277E+00 -0.35673E+01      982.00
  0.54364E+00  0.66181E+02    0.28750E+00  0.28750E+00 -0.57500E+00  0.00000E+00  0.00000E+00  0.00000E+00    0.29715E+02  0.12373E+02 -0.42088E+02  0.66309E+01 -0.56982E+00 -0.34580E+01      982.00
  0.56749E+00  0.66361E+02    0.30000E+00  0.30000E+00 -0.60000E+00  0.00000E+00  0.00000E+00  0.00000E+00    0.29792E+02  0.12431E+02 -0.42222E+02  0.66347E+01 -0.57330E+00 -0.33460E+01      982.00
  0.59135E+00  0.66530E+02    0.31250E+00  0.31250E+00 -0.62500E+00  0.00000E+00  0.00000E+00  0.00000E+00    0.29861E+02  0.12487E+02 -0.42349E+02  0.66391E+01 -0.58076E+00 -0.32326E+01      982.00
  0.61522E+00  0.66684E+02    0.32500E+00  0.32500E+00 -0.65000E+00  0.00000E+00  0.00000E+00  0.00000E+00    0.29924E+02  0.12542E+02 -0.42466E+02  0.66442E+01 -0.59190E+00 -0.31177E+01      982.00
  0.63910E+00  0.66825E+02    0.33750E+00  0.33750E+00 -0.67500E+00  0.00000E+00  0.00000E+00  0.00000E+00    0.29979E+02  0.12595E+02 -0.42574E+02  0.66500E+01 -0.60614E+00 -0.30017E+01      982.00
  0.66299E+00  0.66949E+02    0.35000E+00  0.35000E+00 -0.70000E+00  0.00000E+00  0.00000E+00  0.00000E+00    0.30022E+02  0.12650E+02 -0.42672E+02  0.66614E+01 -0.62360E+00 -0.28644E+01      982.00
  0.68689E+00  0.67067E+02    0.36250E+00  0.36250E+00 -0.72500E+00  0.00000E+00  0.00000E+00  0.00000E+00    0.30063E+02  0.12700E+02 -0.42763E+02  0.66698E+01 -0.64297E+00 -0.27465E+01      982.00
  0.71080E+00  0.67157E+02    0.37500E+00  0.37500E+00 -0.75000E+00  0.00000E+00  0.00000E+00  0.00000E+00    0.30091E+02  0.12742E+02 -0.42833E+02  0.66810E+01 -0.65987E+00 -0.26496E+01      982.00
  0.73472E+00  0.67257E+02    0.38750E+00  0.38750E+00 -0.77500E+00  0.00000E+00  0.00000E+00  0.00000E+00    0.30123E+02  0.12789E+02 -0.42912E+02  0.66886E+01 -0.68311E+00 -0.25323E+01      982.00
  0.75865E+00  0.67348E+02    0.40000E+00  0.40000E+00 -0.80000E+00  0.00000E+00  0.00000E+00  0.00000E+00    0.30150E+02  0.12835E+02 -0.42985E+02  0.66975E+01 -0.70745E+00 -0.24148E+01      982.00
  0.78258E+00  0.67431E+02    0.41250E+00  0.41250E+00 -0.82500E+00  0.00000E+00  0.00000E+00  0.00000E+00    0.30172E+02  0.12880E+02 -0.43051E+02  0.67071E+01 -0.73284E+00 -0.22971E+01      982.00
  0.80652E+00  0.67505E+02    0.42500E+00  0.42500E+00 -0.85000E+00  0.00000E+00  0.00000E+00  0.00000E+00    0.30189E+02  0.12923E+02 -0.43112E+02  0.67173E+01 -0.75910E+00 -0.21791E+01      982.00
  0.83047E+00  0.67572E+02    0.43750E+00  0.43750E+00 -0.87500E+00  0.00000E+00  0.00000E+00  0.00000E+00    0.30202E+02  0.12966E+02 -0.43168E+02  0.67283E+01 -0.78607E+00 -0.20609E+01      982.00
  0.85443E+00  0.67633E+02    0.45000E+00  0.45000E+00 -0.90000E+00  0.00000E+00  0.00000E+00  0.00000E+00    0.30210E+02  0.13009E+02 -0.43219E+02  0.67399E+01 -0.81361E+00 -0.19425E+01      982.00
  0.87839E+00  0.67615E+02    0.46250E+00  0.46250E+00 -0.92500E+00  0.00000E+00  0.00000E+00  0.00000E+00    0.30196E+02  0.13035E+02 -0.43231E+02  0.66817E+01 -0.83892E+00 -0.18144E+01      982.00
  0.90237E+00  0.67607E+02    0.47500E+00  0.47500E+00 -0.95000E+00  0.00000E+00  0.00000E+00  0.00000E+00    0.30183E+02  0.13059E+02 -0.43241E+02  0.66495E+01 -0.86568E+00 -0.17079E+01      982.00
  0.92635E+00  0.67594E+02    0.48750E+00  0.48750E+00 -0.97500E+00  0.00000E+00  0.00000E+00  0.00000E+00    0.30160E+02  0.13087E+02 -0.43248E+02  0.66328E+01 -0.88569E+00 -0.15980E+01      982.00
  0.95035E+00  0.67577E+02    0.50000E+00  0.50000E+00 -0.10000E+01  0.00000E+00  0.00000E+00  0.00000E+00    0.30132E+02  0.13122E+02 -0.43254E+02  0.66139E+01 -0.91230E+00 -0.14601E+01      982.00
