          Evm          Svm            E11          E22          E33          E23          E13          E12         SDEV11       SDEV22       SDEV33       SDEV23       SDEV13       SDEV12      TEMP
  0.00000E+00  0.62613E+02    0.00000E+00  0.00000E+00  0.00000E+00  0.00000E+00  0.00000E+00  0.00000E+00    0.14260E+02  0.25160E+02 -0.39420E+02 -0.16916E+01 -0.59427E+01 -0.85721E+01      982.00
  0.23609E-01  0.62884E+02    0.12500E-01  0.12500E-01 -0.25000E-01  0.00000E+00  0.00000E+00  0.00000E+00    0.14158E+02  0.25478E+02 -0.39636E+02 -0.18118E+01 -0.57284E+01 -0.84692E+01      982.00
  0.47246E-01  0.63194E+02    0.25000E-01  0.25000E-01 -0.50000E-01  0.00000E+00  0.00000E+00  0.00000E+00    0.14155E+02  0.25732E+02 -0.39887E+02 -0.19191E+01 -0.56084E+01 -0.83258E+01      982.00
  0.70915E-01  0.63290E+02    0.37500E-01  0.37500E-01 -0.75000E-01  0.00000E+00  0.00000E+00  0.00000E+00    0.14235E+02  0.25799E+02 -0.40034E+02 -0.19682E+01 -0.55052E+01 -0.80983E+01      982.00
  0.94635E-01  0.63263E+02    0.50000E-01  0.50000E-01 -0.10000E+00  0.00000E+00  0.00000E+00  0.00000E+00    0.14272E+02  0.25842E+02 -0.40114E+02 -0.21171E+01 -0.53091E+01 -0.78162E+01      982.00
  0.11841E+00  0.63327E+02    0.62500E-01  0.62500E-01 -0.12500E+00  0.00000E+00  0.00000E+00  0.00000E+00    0.14240E+02  0.25990E+02 -0.40231E+02 -0.24013E+01 -0.50678E+01 -0.75463E+01      982.00
  0.14224E+00  0.63486E+02    0.75000E-01  0.75000E-01 -0.15000E+00  0.00000E+00  0.00000E+00  0.00000E+00    0.14177E+02  0.26205E+02 -0.40382E+02 -0.27317E+01 -0.48366E+01 -0.73090E+01      982.00
  0.16609E+00  0.63714E+02    0.87500E-01  0.87500E-01 -0.17500E+00  0.00000E+00  0.00000E+00  0.00000E+00    0.14100E+02  0.26457E+02 -0.40557E+02 -0.30466E+01 -0.46317E+01 -0.71133E+01      982.00
  0.18996E+00  0.63991E+02    0.10000E+00  0.10000E+00 -0.20000E+00  0.00000E+00  0.00000E+00  0.00000E+00    0.14026E+02  0.26722E+02 -0.40747E+02 -0.33163E+01 -0.44629E+01 -0.69636E+01      982.00
  0.21384E+00  0.64302E+02    0.11250E+00  0.11250E+00 -0.22500E+00  0.00000E+00  0.00000E+00  0.00000E+00    0.13968E+02  0.26981E+02 -0.40950E+02 -0.35313E+01 -0.43320E+01 -0.68583E+01      982.00
  0.23772E+00  0.64637E+02    0.12500E+00  0.12500E+00 -0.25000E+00  0.00000E+00  0.00000E+00  0.00000E+00    0.13919E+02  0.27242E+02 -0.41161E+02 -0.36971E+01 -0.42263E+01 -0.67896E+01      982.00
  0.26160E+00  0.64985E+02    0.13750E+00  0.13750E+00 -0.27500E+00  0.00000E+00  0.00000E+00  0.00000E+00    0.13882E+02  0.27495E+02 -0.41376E+02 -0.38194E+01 -0.41445E+01 -0.67509E+01      982.00
  0.28548E+00  0.65338E+02    0.15000E+00  0.15000E+00 -0.30000E+00  0.00000E+00  0.00000E+00  0.00000E+00    0.13860E+02  0.27735E+02 -0.41595E+02 -0.39057E+01 -0.40844E+01 -0.67367E+01      982.00
  0.30935E+00  0.65686E+02    0.16250E+00  0.16250E+00 -0.32500E+00  0.00000E+00  0.00000E+00  0.00000E+00    0.13850E+02  0.27960E+02 -0.41810E+02 -0.39631E+01 -0.40379E+01 -0.67369E+01      982.00
  0.33322E+00  0.66022E+02    0.17500E+00  0.17500E+00 -0.35000E+00  0.00000E+00  0.00000E+00  0.00000E+00    0.13852E+02  0.28167E+02 -0.42019E+02 -0.39983E+01 -0.40037E+01 -0.67482E+01      982.00
  0.35708E+00  0.66340E+02    0.18750E+00  0.18750E+00 -0.37500E+00  0.00000E+00  0.00000E+00  0.00000E+00    0.13862E+02  0.28355E+02 -0.42217E+02 -0.40171E+01 -0.39794E+01 -0.67672E+01      982.00
  0.38095E+00  0.66639E+02    0.20000E+00  0.20000E+00 -0.40000E+00  0.00000E+00  0.00000E+00  0.00000E+00    0.13879E+02  0.28525E+02 -0.42404E+02 -0.40241E+01 -0.39638E+01 -0.67920E+01      982.00
  0.40481E+00  0.66919E+02    0.21250E+00  0.21250E+00 -0.42500E+00  0.00000E+00  0.00000E+00  0.00000E+00    0.13902E+02  0.28678E+02 -0.42580E+02 -0.40227E+01 -0.39560E+01 -0.68202E+01      982.00
  0.42867E+00  0.67191E+02    0.22500E+00  0.22500E+00 -0.45000E+00  0.00000E+00  0.00000E+00  0.00000E+00    0.13933E+02  0.28819E+02 -0.42752E+02 -0.40146E+01 -0.39556E+01 -0.68512E+01      982.00
  0.45253E+00  0.67458E+02    0.23750E+00  0.23750E+00 -0.47500E+00  0.00000E+00  0.00000E+00  0.00000E+00    0.13973E+02  0.28949E+02 -0.42923E+02 -0.39991E+01 -0.39601E+01 -0.68819E+01      982.00
  0.47639E+00  0.67715E+02    0.25000E+00  0.25000E+00 -0.50000E+00  0.00000E+00  0.00000E+00  0.00000E+00    0.14021E+02  0.29069E+02 -0.43090E+02 -0.39759E+01 -0.39664E+01 -0.69116E+01      982.00
  0.50025E+00  0.67950E+02    0.26250E+00  0.26250E+00 -0.52500E+00  0.00000E+00  0.00000E+00  0.00000E+00    0.14074E+02  0.29170E+02 -0.43244E+02 -0.39474E+01 -0.39755E+01 -0.69396E+01      982.00
  0.52412E+00  0.68137E+02    0.27500E+00  0.27500E+00 -0.55000E+00  0.00000E+00  0.00000E+00  0.00000E+00    0.14127E+02  0.29243E+02 -0.43369E+02 -0.39207E+01 -0.39855E+01 -0.69642E+01      982.00
  0.54799E+00  0.68315E+02    0.28750E+00  0.28750E+00 -0.57500E+00  0.00000E+00  0.00000E+00  0.00000E+00    0.14180E+02  0.29308E+02 -0.43488E+02 -0.38953E+01 -0.39992E+01 -0.69894E+01      982.00
  0.57186E+00  0.68435E+02    0.30000E+00  0.30000E+00 -0.60000E+00  0.00000E+00  0.00000E+00  0.00000E+00    0.14221E+02  0.29347E+02 -0.43568E+02 -0.38835E+01 -0.40106E+01 -0.70104E+01      982.00
  0.59573E+00  0.68587E+02    0.31250E+00  0.31250E+00 -0.62500E+00  0.00000E+00  0.00000E+00  0.00000E+00    0.14270E+02  0.29400E+02 -0.43671E+02 -0.38595E+01 -0.40197E+01 -0.70322E+01      982.00
  0.61961E+00  0.68725E+02    0.32500E+00  0.32500E+00 -0.65000E+00  0.00000E+00  0.00000E+00  0.00000E+00    0.14318E+02  0.29446E+02 -0.43764E+02 -0.38350E+01 -0.40278E+01 -0.70535E+01      982.00
  0.64349E+00  0.68843E+02    0.33750E+00  0.33750E+00 -0.67500E+00  0.00000E+00  0.00000E+00  0.00000E+00    0.14356E+02  0.29487E+02 -0.43843E+02 -0.38177E+01 -0.40307E+01 -0.70731E+01      982.00
  0.66737E+00  0.68961E+02    0.35000E+00  0.35000E+00 -0.70000E+00  0.00000E+00  0.00000E+00  0.00000E+00    0.14398E+02  0.29526E+02 -0.43924E+02 -0.37952E+01 -0.40370E+01 -0.70932E+01      982.00
  0.69126E+00  0.69069E+02    0.36250E+00  0.36250E+00 -0.72500E+00  0.00000E+00  0.00000E+00  0.00000E+00    0.14440E+02  0.29558E+02 -0.43998E+02 -0.37726E+01 -0.40433E+01 -0.71130E+01      982.00
  0.71515E+00  0.69168E+02    0.37500E+00  0.37500E+00 -0.75000E+00  0.00000E+00  0.00000E+00  0.00000E+00    0.14480E+02  0.29586E+02 -0.44066E+02 -0.37504E+01 -0.40491E+01 -0.71326E+01      982.00
  0.73904E+00  0.69246E+02    0.38750E+00  0.38750E+00 -0.77500E+00  0.00000E+00  0.00000E+00  0.00000E+00    0.14515E+02  0.29605E+02 -0.44120E+02 -0.37312E+01 -0.40546E+01 -0.71512E+01      982.00
  0.76293E+00  0.69329E+02    0.40000E+00  0.40000E+00 -0.80000E+00  0.00000E+00  0.00000E+00  0.00000E+00    0.14552E+02  0.29626E+02 -0.44177E+02 -0.37101E+01 -0.40596E+01 -0.71700E+01      982.00
  0.78683E+00  0.69406E+02    0.41250E+00  0.41250E+00 -0.82500E+00  0.00000E+00  0.00000E+00  0.00000E+00    0.14587E+02  0.29644E+02 -0.44230E+02 -0.36894E+01 -0.40642E+01 -0.71887E+01      982.00
  0.81072E+00  0.69476E+02    0.42500E+00  0.42500E+00 -0.85000E+00  0.00000E+00  0.00000E+00  0.00000E+00    0.14620E+02  0.29659E+02 -0.44279E+02 -0.36693E+01 -0.40685E+01 -0.72073E+01      982.00
  0.83462E+00  0.69540E+02    0.43750E+00  0.43750E+00 -0.87500E+00  0.00000E+00  0.00000E+00  0.00000E+00    0.14652E+02  0.29671E+02 -0.44323E+02 -0.36496E+01 -0.40724E+01 -0.72258E+01      982.00
  0.85852E+00  0.69598E+02    0.45000E+00  0.45000E+00 -0.90000E+00  0.00000E+00  0.00000E+00  0.00000E+00    0.14683E+02  0.29681E+02 -0.44364E+02 -0.36305E+01 -0.40761E+01 -0.72442E+01      982.00
  0.88243E+00  0.69601E+02    0.46250E+00  0.46250E+00 -0.92500E+00  0.00000E+00  0.00000E+00  0.00000E+00    0.14709E+02  0.29663E+02 -0.44372E+02 -0.35936E+01 -0.40695E+01 -0.72600E+01      982.00
  0.90634E+00  0.69596E+02    0.47500E+00  0.47500E+00 -0.95000E+00  0.00000E+00  0.00000E+00  0.00000E+00    0.14734E+02  0.29642E+02 -0.44376E+02 -0.35625E+01 -0.40613E+01 -0.72704E+01      982.00
  0.93025E+00  0.69590E+02    0.48750E+00  0.48750E+00 -0.97500E+00  0.00000E+00  0.00000E+00  0.00000E+00    0.14758E+02  0.29621E+02 -0.44379E+02 -0.35330E+01 -0.40531E+01 -0.72813E+01      982.00
  0.95416E+00  0.69585E+02    0.50000E+00  0.50000E+00 -0.10000E+01  0.00000E+00  0.00000E+00  0.00000E+00    0.14780E+02  0.29601E+02 -0.44381E+02 -0.35044E+01 -0.40450E+01 -0.72925E+01      982.00
