          Evm          Svm            E11          E22          E33          E23          E13          E12         SDEV11       SDEV22       SDEV33       SDEV23       SDEV13       SDEV12      TEMP
  0.00000E+00  0.57116E+02    0.00000E+00  0.00000E+00  0.00000E+00  0.00000E+00  0.00000E+00  0.00000E+00    0.13660E+02  0.21539E+02 -0.35199E+02 -0.49543E+01 -0.40856E+01 -0.10071E+02      982.00
  0.23110E-01  0.57395E+02    0.12500E-01  0.12500E-01 -0.25000E-01  0.00000E+00  0.00000E+00  0.00000E+00    0.14171E+02  0.21196E+02 -0.35367E+02 -0.49067E+01 -0.44975E+01 -0.10163E+02      982.00
  0.46218E-01  0.57635E+02    0.25000E-01  0.25000E-01 -0.50000E-01  0.00000E+00  0.00000E+00  0.00000E+00    0.14577E+02  0.20952E+02 -0.35530E+02 -0.49855E+01 -0.46697E+01 -0.10182E+02      982.00
  0.69335E-01  0.57907E+02    0.37500E-01  0.37500E-01 -0.75000E-01  0.00000E+00  0.00000E+00  0.00000E+00    0.14908E+02  0.20806E+02 -0.35715E+02 -0.51377E+01 -0.47108E+01 -0.10188E+02      982.00
  0.92464E-01  0.58195E+02    0.50000E-01  0.50000E-01 -0.10000E+00  0.00000E+00  0.00000E+00  0.00000E+00    0.15184E+02  0.20729E+02 -0.35912E+02 -0.53039E+01 -0.46860E+01 -0.10190E+02      982.00
  0.11561E+00  0.58502E+02    0.62500E-01  0.62500E-01 -0.12500E+00  0.00000E+00  0.00000E+00  0.00000E+00    0.15389E+02  0.20739E+02 -0.36127E+02 -0.54470E+01 -0.46238E+01 -0.10185E+02      982.00
  0.13876E+00  0.58831E+02    0.75000E-01  0.75000E-01 -0.15000E+00  0.00000E+00  0.00000E+00  0.00000E+00    0.15548E+02  0.20813E+02 -0.36361E+02 -0.55282E+01 -0.45699E+01 -0.10184E+02      982.00
  0.16194E+00  0.59185E+02    0.87500E-01  0.87500E-01 -0.17500E+00  0.00000E+00  0.00000E+00  0.00000E+00    0.15701E+02  0.20906E+02 -0.36607E+02 -0.55847E+01 -0.45296E+01 -0.10202E+02      982.00
  0.18514E+00  0.59562E+02    0.10000E+00  0.10000E+00 -0.20000E+00  0.00000E+00  0.00000E+00  0.00000E+00    0.15832E+02  0.21036E+02 -0.36868E+02 -0.56116E+01 -0.44956E+01 -0.10229E+02      982.00
  0.20835E+00  0.59952E+02    0.11250E+00  0.11250E+00 -0.22500E+00  0.00000E+00  0.00000E+00  0.00000E+00    0.15941E+02  0.21198E+02 -0.37139E+02 -0.56129E+01 -0.44642E+01 -0.10259E+02      982.00
  0.23158E+00  0.60364E+02    0.12500E+00  0.12500E+00 -0.25000E+00  0.00000E+00  0.00000E+00  0.00000E+00    0.16042E+02  0.21381E+02 -0.37423E+02 -0.55932E+01 -0.44463E+01 -0.10299E+02      982.00
  0.25483E+00  0.60779E+02    0.13750E+00  0.13750E+00 -0.27500E+00  0.00000E+00  0.00000E+00  0.00000E+00    0.16131E+02  0.21577E+02 -0.37708E+02 -0.55565E+01 -0.44357E+01 -0.10342E+02      982.00
  0.27809E+00  0.61214E+02    0.15000E+00  0.15000E+00 -0.30000E+00  0.00000E+00  0.00000E+00  0.00000E+00    0.16217E+02  0.21791E+02 -0.38008E+02 -0.55073E+01 -0.44328E+01 -0.10385E+02      982.00
  0.30138E+00  0.61635E+02    0.16250E+00  0.16250E+00 -0.32500E+00  0.00000E+00  0.00000E+00  0.00000E+00    0.16284E+02  0.22014E+02 -0.38298E+02 -0.54500E+01 -0.44331E+01 -0.10424E+02      982.00
  0.32468E+00  0.62070E+02    0.17500E+00  0.17500E+00 -0.35000E+00  0.00000E+00  0.00000E+00  0.00000E+00    0.16357E+02  0.22243E+02 -0.38600E+02 -0.53847E+01 -0.44420E+01 -0.10460E+02      982.00
  0.34800E+00  0.62494E+02    0.18750E+00  0.18750E+00 -0.37500E+00  0.00000E+00  0.00000E+00  0.00000E+00    0.16413E+02  0.22482E+02 -0.38895E+02 -0.53117E+01 -0.44544E+01 -0.10488E+02      982.00
  0.37134E+00  0.62911E+02    0.20000E+00  0.20000E+00 -0.40000E+00  0.00000E+00  0.00000E+00  0.00000E+00    0.16475E+02  0.22711E+02 -0.39185E+02 -0.52380E+01 -0.44729E+01 -0.10510E+02      982.00
  0.39469E+00  0.63318E+02    0.21250E+00  0.21250E+00 -0.42500E+00  0.00000E+00  0.00000E+00  0.00000E+00    0.16533E+02  0.22938E+02 -0.39471E+02 -0.51622E+01 -0.44954E+01 -0.10525E+02      982.00
  0.41807E+00  0.63705E+02    0.22500E+00  0.22500E+00 -0.45000E+00  0.00000E+00  0.00000E+00  0.00000E+00    0.16586E+02  0.23161E+02 -0.39746E+02 -0.50851E+01 -0.45193E+01 -0.10530E+02      982.00
  0.44147E+00  0.64078E+02    0.23750E+00  0.23750E+00 -0.47500E+00  0.00000E+00  0.00000E+00  0.00000E+00    0.16634E+02  0.23379E+02 -0.40013E+02 -0.50069E+01 -0.45455E+01 -0.10526E+02      982.00
  0.46488E+00  0.64457E+02    0.25000E+00  0.25000E+00 -0.50000E+00  0.00000E+00  0.00000E+00  0.00000E+00    0.16671E+02  0.23616E+02 -0.40287E+02 -0.49181E+01 -0.45745E+01 -0.10509E+02      982.00
  0.48832E+00  0.64795E+02    0.26250E+00  0.26250E+00 -0.52500E+00  0.00000E+00  0.00000E+00  0.00000E+00    0.16708E+02  0.23825E+02 -0.40533E+02 -0.48391E+01 -0.46029E+01 -0.10488E+02      982.00
  0.51178E+00  0.65116E+02    0.27500E+00  0.27500E+00 -0.55000E+00  0.00000E+00  0.00000E+00  0.00000E+00    0.16741E+02  0.24028E+02 -0.40769E+02 -0.47608E+01 -0.46303E+01 -0.10459E+02      982.00
  0.53526E+00  0.65426E+02    0.28750E+00  0.28750E+00 -0.57500E+00  0.00000E+00  0.00000E+00  0.00000E+00    0.16770E+02  0.24228E+02 -0.40999E+02 -0.46840E+01 -0.46578E+01 -0.10423E+02      982.00
  0.55876E+00  0.65705E+02    0.30000E+00  0.30000E+00 -0.60000E+00  0.00000E+00  0.00000E+00  0.00000E+00    0.16795E+02  0.24410E+02 -0.41204E+02 -0.46183E+01 -0.46847E+01 -0.10388E+02      982.00
  0.58228E+00  0.65978E+02    0.31250E+00  0.31250E+00 -0.62500E+00  0.00000E+00  0.00000E+00  0.00000E+00    0.16813E+02  0.24598E+02 -0.41411E+02 -0.45428E+01 -0.47102E+01 -0.10339E+02      982.00
  0.60581E+00  0.66229E+02    0.32500E+00  0.32500E+00 -0.65000E+00  0.00000E+00  0.00000E+00  0.00000E+00    0.16824E+02  0.24779E+02 -0.41603E+02 -0.44679E+01 -0.47337E+01 -0.10284E+02      982.00
  0.62937E+00  0.66477E+02    0.33750E+00  0.33750E+00 -0.67500E+00  0.00000E+00  0.00000E+00  0.00000E+00    0.16835E+02  0.24959E+02 -0.41794E+02 -0.43945E+01 -0.47568E+01 -0.10226E+02      982.00
  0.65295E+00  0.66698E+02    0.35000E+00  0.35000E+00 -0.70000E+00  0.00000E+00  0.00000E+00  0.00000E+00    0.16837E+02  0.25130E+02 -0.41967E+02 -0.43222E+01 -0.47789E+01 -0.10161E+02      982.00
  0.67654E+00  0.66909E+02    0.36250E+00  0.36250E+00 -0.72500E+00  0.00000E+00  0.00000E+00  0.00000E+00    0.16835E+02  0.25298E+02 -0.42134E+02 -0.42506E+01 -0.47983E+01 -0.10092E+02      982.00
  0.70015E+00  0.67106E+02    0.37500E+00  0.37500E+00 -0.75000E+00  0.00000E+00  0.00000E+00  0.00000E+00    0.16828E+02  0.25463E+02 -0.42290E+02 -0.41811E+01 -0.48176E+01 -0.10019E+02      982.00
  0.72379E+00  0.67292E+02    0.38750E+00  0.38750E+00 -0.77500E+00  0.00000E+00  0.00000E+00  0.00000E+00    0.16817E+02  0.25623E+02 -0.42440E+02 -0.41120E+01 -0.48349E+01 -0.99438E+01      982.00
  0.74744E+00  0.67464E+02    0.40000E+00  0.40000E+00 -0.80000E+00  0.00000E+00  0.00000E+00  0.00000E+00    0.16801E+02  0.25779E+02 -0.42580E+02 -0.40452E+01 -0.48515E+01 -0.98647E+01      982.00
  0.77111E+00  0.67623E+02    0.41250E+00  0.41250E+00 -0.82500E+00  0.00000E+00  0.00000E+00  0.00000E+00    0.16779E+02  0.25931E+02 -0.42710E+02 -0.39797E+01 -0.48669E+01 -0.97836E+01      982.00
  0.79479E+00  0.67773E+02    0.42500E+00  0.42500E+00 -0.85000E+00  0.00000E+00  0.00000E+00  0.00000E+00    0.16755E+02  0.26079E+02 -0.42834E+02 -0.39157E+01 -0.48810E+01 -0.96999E+01      982.00
  0.81849E+00  0.67913E+02    0.43750E+00  0.43750E+00 -0.87500E+00  0.00000E+00  0.00000E+00  0.00000E+00    0.16727E+02  0.26225E+02 -0.42952E+02 -0.38520E+01 -0.48937E+01 -0.96139E+01      982.00
  0.84221E+00  0.68046E+02    0.45000E+00  0.45000E+00 -0.90000E+00  0.00000E+00  0.00000E+00  0.00000E+00    0.16695E+02  0.26367E+02 -0.43063E+02 -0.37917E+01 -0.49066E+01 -0.95274E+01      982.00
  0.86594E+00  0.68170E+02    0.46250E+00  0.46250E+00 -0.92500E+00  0.00000E+00  0.00000E+00  0.00000E+00    0.16665E+02  0.26499E+02 -0.43164E+02 -0.37469E+01 -0.49138E+01 -0.94501E+01      982.00
  0.88968E+00  0.68212E+02    0.47500E+00  0.47500E+00 -0.95000E+00  0.00000E+00  0.00000E+00  0.00000E+00    0.16617E+02  0.26606E+02 -0.43223E+02 -0.36660E+01 -0.49025E+01 -0.93474E+01      982.00
  0.91345E+00  0.68271E+02    0.48750E+00  0.48750E+00 -0.97500E+00  0.00000E+00  0.00000E+00  0.00000E+00    0.16574E+02  0.26715E+02 -0.43289E+02 -0.36002E+01 -0.48952E+01 -0.92511E+01      982.00
  0.93722E+00  0.68311E+02    0.50000E+00  0.50000E+00 -0.10000E+01  0.00000E+00  0.00000E+00  0.00000E+00    0.16524E+02  0.26818E+02 -0.43342E+02 -0.35264E+01 -0.48865E+01 -0.91529E+01      982.00
