          Evm          Svm            E11          E22          E33          E23          E13          E12         SDEV11       SDEV22       SDEV33       SDEV23       SDEV13       SDEV12      TEMP
  0.00000E+00  0.62100E+02    0.00000E+00  0.00000E+00  0.00000E+00  0.00000E+00  0.00000E+00  0.00000E+00    0.18446E+02  0.19507E+02 -0.37953E+02 -0.70393E+00  0.12269E+01  0.14243E+02      982.00
  0.22918E-01  0.62084E+02    0.12500E-01  0.12500E-01 -0.25000E-01  0.00000E+00  0.00000E+00  0.00000E+00    0.18530E+02  0.19466E+02 -0.37996E+02 -0.82260E+00  0.11996E+01  0.14132E+02      982.00
  0.45869E-01  0.62094E+02    0.25000E-01  0.25000E-01 -0.50000E-01  0.00000E+00  0.00000E+00  0.00000E+00    0.18563E+02  0.19498E+02 -0.38061E+02 -0.93675E+00  0.11948E+01  0.14009E+02      982.00
  0.68854E-01  0.62132E+02    0.37500E-01  0.37500E-01 -0.75000E-01  0.00000E+00  0.00000E+00  0.00000E+00    0.18580E+02  0.19562E+02 -0.38142E+02 -0.10548E+01  0.11998E+01  0.13889E+02      982.00
  0.91875E-01  0.62217E+02    0.50000E-01  0.50000E-01 -0.10000E+00  0.00000E+00  0.00000E+00  0.00000E+00    0.18598E+02  0.19649E+02 -0.38246E+02 -0.11647E+01  0.12112E+01  0.13789E+02      982.00
  0.11493E+00  0.62330E+02    0.62500E-01  0.62500E-01 -0.12500E+00  0.00000E+00  0.00000E+00  0.00000E+00    0.18612E+02  0.19750E+02 -0.38362E+02 -0.12822E+01  0.12363E+01  0.13704E+02      982.00
  0.13801E+00  0.62481E+02    0.75000E-01  0.75000E-01 -0.15000E+00  0.00000E+00  0.00000E+00  0.00000E+00    0.18631E+02  0.19863E+02 -0.38493E+02 -0.14004E+01  0.12762E+01  0.13639E+02      982.00
  0.16111E+00  0.62667E+02    0.87500E-01  0.87500E-01 -0.17500E+00  0.00000E+00  0.00000E+00  0.00000E+00    0.18656E+02  0.19984E+02 -0.38640E+02 -0.15199E+01  0.13314E+01  0.13592E+02      982.00
  0.18423E+00  0.62884E+02    0.10000E+00  0.10000E+00 -0.20000E+00  0.00000E+00  0.00000E+00  0.00000E+00    0.18689E+02  0.20112E+02 -0.38801E+02 -0.16404E+01  0.14003E+01  0.13558E+02      982.00
  0.20737E+00  0.63124E+02    0.11250E+00  0.11250E+00 -0.22500E+00  0.00000E+00  0.00000E+00  0.00000E+00    0.18731E+02  0.20243E+02 -0.38974E+02 -0.17602E+01  0.14793E+01  0.13533E+02      982.00
  0.23052E+00  0.63386E+02    0.12500E+00  0.12500E+00 -0.25000E+00  0.00000E+00  0.00000E+00  0.00000E+00    0.18783E+02  0.20375E+02 -0.39158E+02 -0.18778E+01  0.15648E+01  0.13515E+02      982.00
  0.25369E+00  0.63663E+02    0.13750E+00  0.13750E+00 -0.27500E+00  0.00000E+00  0.00000E+00  0.00000E+00    0.18843E+02  0.20507E+02 -0.39350E+02 -0.19913E+01  0.16529E+01  0.13501E+02      982.00
  0.27687E+00  0.63950E+02    0.15000E+00  0.15000E+00 -0.30000E+00  0.00000E+00  0.00000E+00  0.00000E+00    0.18910E+02  0.20638E+02 -0.39549E+02 -0.20992E+01  0.17406E+01  0.13489E+02      982.00
  0.30006E+00  0.64242E+02    0.16250E+00  0.16250E+00 -0.32500E+00  0.00000E+00  0.00000E+00  0.00000E+00    0.18984E+02  0.20767E+02 -0.39751E+02 -0.22006E+01  0.18257E+01  0.13476E+02      982.00
  0.32326E+00  0.64520E+02    0.17500E+00  0.17500E+00 -0.35000E+00  0.00000E+00  0.00000E+00  0.00000E+00    0.19056E+02  0.20891E+02 -0.39947E+02 -0.22995E+01  0.19112E+01  0.13454E+02      982.00
  0.34648E+00  0.64812E+02    0.18750E+00  0.18750E+00 -0.37500E+00  0.00000E+00  0.00000E+00  0.00000E+00    0.19139E+02  0.21013E+02 -0.40152E+02 -0.23862E+01  0.19868E+01  0.13438E+02      982.00
  0.36971E+00  0.65099E+02    0.20000E+00  0.20000E+00 -0.40000E+00  0.00000E+00  0.00000E+00  0.00000E+00    0.19224E+02  0.21130E+02 -0.40354E+02 -0.24653E+01  0.20562E+01  0.13419E+02      982.00
  0.39296E+00  0.65379E+02    0.21250E+00  0.21250E+00 -0.42500E+00  0.00000E+00  0.00000E+00  0.00000E+00    0.19311E+02  0.21243E+02 -0.40554E+02 -0.25370E+01  0.21194E+01  0.13397E+02      982.00
  0.41622E+00  0.65639E+02    0.22500E+00  0.22500E+00 -0.45000E+00  0.00000E+00  0.00000E+00  0.00000E+00    0.19395E+02  0.21349E+02 -0.40744E+02 -0.26087E+01  0.21831E+01  0.13364E+02      982.00
  0.43950E+00  0.65899E+02    0.23750E+00  0.23750E+00 -0.47500E+00  0.00000E+00  0.00000E+00  0.00000E+00    0.19482E+02  0.21452E+02 -0.40933E+02 -0.26655E+01  0.22333E+01  0.13336E+02      982.00
  0.46279E+00  0.66149E+02    0.25000E+00  0.25000E+00 -0.50000E+00  0.00000E+00  0.00000E+00  0.00000E+00    0.19568E+02  0.21549E+02 -0.41117E+02 -0.27151E+01  0.22768E+01  0.13308E+02      982.00
  0.48610E+00  0.66387E+02    0.26250E+00  0.26250E+00 -0.52500E+00  0.00000E+00  0.00000E+00  0.00000E+00    0.19653E+02  0.21641E+02 -0.41293E+02 -0.27579E+01  0.23143E+01  0.13277E+02      982.00
  0.50942E+00  0.66613E+02    0.27500E+00  0.27500E+00 -0.55000E+00  0.00000E+00  0.00000E+00  0.00000E+00    0.19735E+02  0.21728E+02 -0.41463E+02 -0.27945E+01  0.23461E+01  0.13245E+02      982.00
  0.53277E+00  0.66824E+02    0.28750E+00  0.28750E+00 -0.57500E+00  0.00000E+00  0.00000E+00  0.00000E+00    0.19815E+02  0.21810E+02 -0.41626E+02 -0.28337E+01  0.23805E+01  0.13202E+02      982.00
  0.55613E+00  0.67026E+02    0.30000E+00  0.30000E+00 -0.60000E+00  0.00000E+00  0.00000E+00  0.00000E+00    0.19892E+02  0.21887E+02 -0.41779E+02 -0.28584E+01  0.24016E+01  0.13169E+02      982.00
  0.57950E+00  0.67216E+02    0.31250E+00  0.31250E+00 -0.62500E+00  0.00000E+00  0.00000E+00  0.00000E+00    0.19966E+02  0.21960E+02 -0.41926E+02 -0.28775E+01  0.24176E+01  0.13136E+02      982.00
  0.60289E+00  0.67395E+02    0.32500E+00  0.32500E+00 -0.65000E+00  0.00000E+00  0.00000E+00  0.00000E+00    0.20037E+02  0.22027E+02 -0.42064E+02 -0.28920E+01  0.24295E+01  0.13104E+02      982.00
  0.62630E+00  0.67565E+02    0.33750E+00  0.33750E+00 -0.67500E+00  0.00000E+00  0.00000E+00  0.00000E+00    0.20107E+02  0.22093E+02 -0.42201E+02 -0.29093E+01  0.24443E+01  0.13061E+02      982.00
  0.64972E+00  0.67704E+02    0.35000E+00  0.35000E+00 -0.70000E+00  0.00000E+00  0.00000E+00  0.00000E+00    0.20163E+02  0.22146E+02 -0.42308E+02 -0.29164E+01  0.24497E+01  0.13038E+02      982.00
  0.67315E+00  0.67853E+02    0.36250E+00  0.36250E+00 -0.72500E+00  0.00000E+00  0.00000E+00  0.00000E+00    0.20224E+02  0.22202E+02 -0.42426E+02 -0.29183E+01  0.24505E+01  0.13009E+02      982.00
  0.69660E+00  0.68012E+02    0.37500E+00  0.37500E+00 -0.75000E+00  0.00000E+00  0.00000E+00  0.00000E+00    0.20292E+02  0.22265E+02 -0.42557E+02 -0.29212E+01  0.24526E+01  0.12964E+02      982.00
  0.72006E+00  0.68139E+02    0.38750E+00  0.38750E+00 -0.77500E+00  0.00000E+00  0.00000E+00  0.00000E+00    0.20345E+02  0.22313E+02 -0.42658E+02 -0.29175E+01  0.24488E+01  0.12937E+02      982.00
  0.74354E+00  0.68258E+02    0.40000E+00  0.40000E+00 -0.80000E+00  0.00000E+00  0.00000E+00  0.00000E+00    0.20395E+02  0.22359E+02 -0.42754E+02 -0.29108E+01  0.24422E+01  0.12912E+02      982.00
  0.76703E+00  0.68387E+02    0.41250E+00  0.41250E+00 -0.82500E+00  0.00000E+00  0.00000E+00  0.00000E+00    0.20451E+02  0.22411E+02 -0.42862E+02 -0.29011E+01  0.24338E+01  0.12873E+02      982.00
  0.79053E+00  0.68488E+02    0.42500E+00  0.42500E+00 -0.85000E+00  0.00000E+00  0.00000E+00  0.00000E+00    0.20494E+02  0.22452E+02 -0.42945E+02 -0.28903E+01  0.24242E+01  0.12851E+02      982.00
  0.81405E+00  0.68583E+02    0.43750E+00  0.43750E+00 -0.87500E+00  0.00000E+00  0.00000E+00  0.00000E+00    0.20533E+02  0.22490E+02 -0.43022E+02 -0.28776E+01  0.24129E+01  0.12831E+02      982.00
  0.83757E+00  0.68673E+02    0.45000E+00  0.45000E+00 -0.90000E+00  0.00000E+00  0.00000E+00  0.00000E+00    0.20570E+02  0.22525E+02 -0.43095E+02 -0.28640E+01  0.24008E+01  0.12813E+02      982.00
  0.86110E+00  0.68756E+02    0.46250E+00  0.46250E+00 -0.92500E+00  0.00000E+00  0.00000E+00  0.00000E+00    0.20604E+02  0.22559E+02 -0.43163E+02 -0.28498E+01  0.23884E+01  0.12795E+02      982.00
  0.88465E+00  0.68834E+02    0.47500E+00  0.47500E+00 -0.95000E+00  0.00000E+00  0.00000E+00  0.00000E+00    0.20636E+02  0.22592E+02 -0.43227E+02 -0.28354E+01  0.23758E+01  0.12779E+02      982.00
  0.90820E+00  0.68900E+02    0.48750E+00  0.48750E+00 -0.97500E+00  0.00000E+00  0.00000E+00  0.00000E+00    0.20662E+02  0.22617E+02 -0.43278E+02 -0.28291E+01  0.23697E+01  0.12770E+02      982.00
  0.93175E+00  0.68970E+02    0.50000E+00  0.50000E+00 -0.10000E+01  0.00000E+00  0.00000E+00  0.00000E+00    0.20690E+02  0.22646E+02 -0.43336E+02 -0.28177E+01  0.23595E+01  0.12753E+02      982.00
