          Evm          Svm            E11          E22          E33          E23          E13          E12         SDEV11       SDEV22       SDEV33       SDEV23       SDEV13       SDEV12      TEMP
  0.00000E+00  0.59057E+02    0.00000E+00  0.00000E+00  0.00000E+00  0.00000E+00  0.00000E+00  0.00000E+00    0.25476E+02  0.11144E+02 -0.36620E+02  0.28069E+01  0.35171E+01 -0.92317E+01      982.00
  0.23253E-01  0.59510E+02    0.12500E-01  0.12500E-01 -0.25000E-01  0.00000E+00  0.00000E+00  0.00000E+00    0.25473E+02  0.11416E+02 -0.36889E+02  0.30872E+01  0.36329E+01 -0.93667E+01      982.00
  0.46498E-01  0.59969E+02    0.25000E-01  0.25000E-01 -0.50000E-01  0.00000E+00  0.00000E+00  0.00000E+00    0.25400E+02  0.11791E+02 -0.37191E+02  0.34029E+01  0.37174E+01 -0.94703E+01      982.00
  0.69755E-01  0.60254E+02    0.37500E-01  0.37500E-01 -0.75000E-01  0.00000E+00  0.00000E+00  0.00000E+00    0.25175E+02  0.12247E+02 -0.37423E+02  0.37300E+01  0.37502E+01 -0.94908E+01      982.00
  0.93045E-01  0.60415E+02    0.50000E-01  0.50000E-01 -0.10000E+00  0.00000E+00  0.00000E+00  0.00000E+00    0.24962E+02  0.12625E+02 -0.37587E+02  0.39053E+01  0.38641E+01 -0.94254E+01      982.00
  0.11638E+00  0.60643E+02    0.62500E-01  0.62500E-01 -0.12500E+00  0.00000E+00  0.00000E+00  0.00000E+00    0.24916E+02  0.12857E+02 -0.37773E+02  0.39234E+01  0.40975E+01 -0.93392E+01      982.00
  0.13973E+00  0.60887E+02    0.75000E-01  0.75000E-01 -0.15000E+00  0.00000E+00  0.00000E+00  0.00000E+00    0.24989E+02  0.12975E+02 -0.37965E+02  0.38294E+01  0.43490E+01 -0.92254E+01      982.00
  0.16312E+00  0.61204E+02    0.87500E-01  0.87500E-01 -0.17500E+00  0.00000E+00  0.00000E+00  0.00000E+00    0.25127E+02  0.13061E+02 -0.38187E+02  0.37445E+01  0.45833E+01 -0.91395E+01      982.00
  0.18651E+00  0.61563E+02    0.10000E+00  0.10000E+00 -0.20000E+00  0.00000E+00  0.00000E+00  0.00000E+00    0.25312E+02  0.13117E+02 -0.38429E+02  0.36670E+01  0.47764E+01 -0.90722E+01      982.00
  0.20992E+00  0.61954E+02    0.11250E+00  0.11250E+00 -0.22500E+00  0.00000E+00  0.00000E+00  0.00000E+00    0.25531E+02  0.13156E+02 -0.38687E+02  0.36039E+01  0.49238E+01 -0.90229E+01      982.00
  0.23334E+00  0.62364E+02    0.12500E+00  0.12500E+00 -0.25000E+00  0.00000E+00  0.00000E+00  0.00000E+00    0.25761E+02  0.13195E+02 -0.38956E+02  0.35642E+01  0.50271E+01 -0.89907E+01      982.00
  0.25676E+00  0.62788E+02    0.13750E+00  0.13750E+00 -0.27500E+00  0.00000E+00  0.00000E+00  0.00000E+00    0.26003E+02  0.13229E+02 -0.39233E+02  0.35391E+01  0.50943E+01 -0.89698E+01      982.00
  0.28019E+00  0.63216E+02    0.15000E+00  0.15000E+00 -0.30000E+00  0.00000E+00  0.00000E+00  0.00000E+00    0.26246E+02  0.13267E+02 -0.39513E+02  0.35300E+01  0.51314E+01 -0.89566E+01      982.00
  0.30363E+00  0.63640E+02    0.16250E+00  0.16250E+00 -0.32500E+00  0.00000E+00  0.00000E+00  0.00000E+00    0.26485E+02  0.13308E+02 -0.39792E+02  0.35345E+01  0.51448E+01 -0.89479E+01      982.00
  0.32708E+00  0.64054E+02    0.17500E+00  0.17500E+00 -0.35000E+00  0.00000E+00  0.00000E+00  0.00000E+00    0.26714E+02  0.13353E+02 -0.40067E+02  0.35507E+01  0.51403E+01 -0.89410E+01      982.00
  0.35054E+00  0.64457E+02    0.18750E+00  0.18750E+00 -0.37500E+00  0.00000E+00  0.00000E+00  0.00000E+00    0.26935E+02  0.13402E+02 -0.40337E+02  0.35771E+01  0.51223E+01 -0.89334E+01      982.00
  0.37401E+00  0.64849E+02    0.20000E+00  0.20000E+00 -0.40000E+00  0.00000E+00  0.00000E+00  0.00000E+00    0.27145E+02  0.13456E+02 -0.40601E+02  0.36128E+01  0.50930E+01 -0.89224E+01      982.00
  0.39748E+00  0.65229E+02    0.21250E+00  0.21250E+00 -0.42500E+00  0.00000E+00  0.00000E+00  0.00000E+00    0.27348E+02  0.13514E+02 -0.40861E+02  0.36561E+01  0.50531E+01 -0.89037E+01      982.00
  0.42097E+00  0.65595E+02    0.22500E+00  0.22500E+00 -0.45000E+00  0.00000E+00  0.00000E+00  0.00000E+00    0.27541E+02  0.13576E+02 -0.41117E+02  0.37061E+01  0.50019E+01 -0.88756E+01      982.00
  0.44448E+00  0.65914E+02    0.23750E+00  0.23750E+00 -0.47500E+00  0.00000E+00  0.00000E+00  0.00000E+00    0.27697E+02  0.13643E+02 -0.41340E+02  0.37545E+01  0.49595E+01 -0.88538E+01      982.00
  0.46800E+00  0.66228E+02    0.25000E+00  0.25000E+00 -0.50000E+00  0.00000E+00  0.00000E+00  0.00000E+00    0.27851E+02  0.13714E+02 -0.41565E+02  0.38033E+01  0.49061E+01 -0.88214E+01      982.00
  0.49154E+00  0.66524E+02    0.26250E+00  0.26250E+00 -0.52500E+00  0.00000E+00  0.00000E+00  0.00000E+00    0.27996E+02  0.13783E+02 -0.41779E+02  0.38511E+01  0.48513E+01 -0.87834E+01      982.00
  0.51509E+00  0.66801E+02    0.27500E+00  0.27500E+00 -0.55000E+00  0.00000E+00  0.00000E+00  0.00000E+00    0.28133E+02  0.13848E+02 -0.41982E+02  0.38974E+01  0.47963E+01 -0.87403E+01      982.00
  0.53865E+00  0.67053E+02    0.28750E+00  0.28750E+00 -0.57500E+00  0.00000E+00  0.00000E+00  0.00000E+00    0.28256E+02  0.13911E+02 -0.42167E+02  0.39310E+01  0.47469E+01 -0.87026E+01      982.00
  0.56224E+00  0.67297E+02    0.30000E+00  0.30000E+00 -0.60000E+00  0.00000E+00  0.00000E+00  0.00000E+00    0.28379E+02  0.13970E+02 -0.42349E+02  0.39721E+01  0.46918E+01 -0.86511E+01      982.00
  0.58583E+00  0.67525E+02    0.31250E+00  0.31250E+00 -0.62500E+00  0.00000E+00  0.00000E+00  0.00000E+00    0.28495E+02  0.14026E+02 -0.42521E+02  0.40114E+01  0.46367E+01 -0.85960E+01      982.00
  0.60945E+00  0.67743E+02    0.32500E+00  0.32500E+00 -0.65000E+00  0.00000E+00  0.00000E+00  0.00000E+00    0.28609E+02  0.14077E+02 -0.42687E+02  0.40426E+01  0.45833E+01 -0.85400E+01      982.00
  0.63308E+00  0.67941E+02    0.33750E+00  0.33750E+00 -0.67500E+00  0.00000E+00  0.00000E+00  0.00000E+00    0.28714E+02  0.14126E+02 -0.42839E+02  0.40771E+01  0.45296E+01 -0.84791E+01      982.00
  0.65672E+00  0.68125E+02    0.35000E+00  0.35000E+00 -0.70000E+00  0.00000E+00  0.00000E+00  0.00000E+00    0.28812E+02  0.14171E+02 -0.42983E+02  0.41099E+01  0.44764E+01 -0.84160E+01      982.00
  0.68038E+00  0.68296E+02    0.36250E+00  0.36250E+00 -0.72500E+00  0.00000E+00  0.00000E+00  0.00000E+00    0.28905E+02  0.14214E+02 -0.43118E+02  0.41406E+01  0.44238E+01 -0.83512E+01      982.00
  0.70406E+00  0.68456E+02    0.37500E+00  0.37500E+00 -0.75000E+00  0.00000E+00  0.00000E+00  0.00000E+00    0.28993E+02  0.14253E+02 -0.43246E+02  0.41692E+01  0.43721E+01 -0.82851E+01      982.00
  0.72775E+00  0.68605E+02    0.38750E+00  0.38750E+00 -0.77500E+00  0.00000E+00  0.00000E+00  0.00000E+00    0.29077E+02  0.14288E+02 -0.43365E+02  0.41959E+01  0.43213E+01 -0.82181E+01      982.00
  0.75145E+00  0.68744E+02    0.40000E+00  0.40000E+00 -0.80000E+00  0.00000E+00  0.00000E+00  0.00000E+00    0.29157E+02  0.14320E+02 -0.43478E+02  0.42208E+01  0.42713E+01 -0.81506E+01      982.00
  0.77517E+00  0.68874E+02    0.41250E+00  0.41250E+00 -0.82500E+00  0.00000E+00  0.00000E+00  0.00000E+00    0.29234E+02  0.14349E+02 -0.43583E+02  0.42439E+01  0.42224E+01 -0.80827E+01      982.00
  0.79890E+00  0.68994E+02    0.42500E+00  0.42500E+00 -0.85000E+00  0.00000E+00  0.00000E+00  0.00000E+00    0.29308E+02  0.14375E+02 -0.43683E+02  0.42653E+01  0.41744E+01 -0.80149E+01      982.00
  0.82264E+00  0.69108E+02    0.43750E+00  0.43750E+00 -0.87500E+00  0.00000E+00  0.00000E+00  0.00000E+00    0.29379E+02  0.14397E+02 -0.43776E+02  0.42855E+01  0.41286E+01 -0.79479E+01      982.00
  0.84640E+00  0.69213E+02    0.45000E+00  0.45000E+00 -0.90000E+00  0.00000E+00  0.00000E+00  0.00000E+00    0.29447E+02  0.14416E+02 -0.43864E+02  0.43040E+01  0.40826E+01 -0.78808E+01      982.00
  0.87016E+00  0.69249E+02    0.46250E+00  0.46250E+00 -0.92500E+00  0.00000E+00  0.00000E+00  0.00000E+00    0.29477E+02  0.14435E+02 -0.43913E+02  0.43070E+01  0.40161E+01 -0.78102E+01      982.00
  0.89394E+00  0.69284E+02    0.47500E+00  0.47500E+00 -0.95000E+00  0.00000E+00  0.00000E+00  0.00000E+00    0.29509E+02  0.14450E+02 -0.43959E+02  0.43091E+01  0.39550E+01 -0.77410E+01      982.00
  0.91773E+00  0.69318E+02    0.48750E+00  0.48750E+00 -0.97500E+00  0.00000E+00  0.00000E+00  0.00000E+00    0.29540E+02  0.14462E+02 -0.44003E+02  0.43102E+01  0.38960E+01 -0.76739E+01      982.00
  0.94154E+00  0.69351E+02    0.50000E+00  0.50000E+00 -0.10000E+01  0.00000E+00  0.00000E+00  0.00000E+00    0.29571E+02  0.14475E+02 -0.44046E+02  0.43088E+01  0.38371E+01 -0.76089E+01      982.00
