          Evm          Svm            E11          E22          E33          E23          E13          E12         SDEV11       SDEV22       SDEV33       SDEV23       SDEV13       SDEV12      TEMP
  0.00000E+00  0.53710E+02    0.00000E+00  0.00000E+00  0.00000E+00  0.00000E+00  0.00000E+00  0.00000E+00    0.12917E+02  0.20683E+02 -0.33600E+02 -0.49542E+01 -0.15605E+01 -0.85336E+01      982.00
  0.23459E-01  0.54202E+02    0.12500E-01  0.12500E-01 -0.25000E-01  0.00000E+00  0.00000E+00  0.00000E+00    0.13457E+02  0.20296E+02 -0.33752E+02 -0.50524E+01 -0.24325E+01 -0.90415E+01      982.00
  0.46811E-01  0.54639E+02    0.25000E-01  0.25000E-01 -0.50000E-01  0.00000E+00  0.00000E+00  0.00000E+00    0.13947E+02  0.19951E+02 -0.33897E+02 -0.51818E+01 -0.30368E+01 -0.93961E+01      982.00
  0.70075E-01  0.55054E+02    0.37500E-01  0.37500E-01 -0.75000E-01  0.00000E+00  0.00000E+00  0.00000E+00    0.14371E+02  0.19688E+02 -0.34060E+02 -0.53427E+01 -0.34086E+01 -0.96457E+01      982.00
  0.93275E-01  0.55459E+02    0.50000E-01  0.50000E-01 -0.10000E+00  0.00000E+00  0.00000E+00  0.00000E+00    0.14730E+02  0.19513E+02 -0.34243E+02 -0.55017E+01 -0.36266E+01 -0.98300E+01      982.00
  0.11643E+00  0.55859E+02    0.62500E-01  0.62500E-01 -0.12500E+00  0.00000E+00  0.00000E+00  0.00000E+00    0.15023E+02  0.19424E+02 -0.34447E+02 -0.56379E+01 -0.37464E+01 -0.99735E+01      982.00
  0.13955E+00  0.56262E+02    0.75000E-01  0.75000E-01 -0.15000E+00  0.00000E+00  0.00000E+00  0.00000E+00    0.15264E+02  0.19406E+02 -0.34669E+02 -0.57427E+01 -0.38124E+01 -0.10093E+02      982.00
  0.16266E+00  0.56667E+02    0.87500E-01  0.87500E-01 -0.17500E+00  0.00000E+00  0.00000E+00  0.00000E+00    0.15462E+02  0.19443E+02 -0.34905E+02 -0.58175E+01 -0.38495E+01 -0.10197E+02      982.00
  0.18576E+00  0.57097E+02    0.10000E+00  0.10000E+00 -0.20000E+00  0.00000E+00  0.00000E+00  0.00000E+00    0.15626E+02  0.19532E+02 -0.35159E+02 -0.58730E+01 -0.38731E+01 -0.10309E+02      982.00
  0.20885E+00  0.57523E+02    0.11250E+00  0.11250E+00 -0.22500E+00  0.00000E+00  0.00000E+00  0.00000E+00    0.15753E+02  0.19673E+02 -0.35426E+02 -0.58906E+01 -0.38775E+01 -0.10400E+02      982.00
  0.23195E+00  0.57991E+02    0.12500E+00  0.12500E+00 -0.25000E+00  0.00000E+00  0.00000E+00  0.00000E+00    0.15863E+02  0.19855E+02 -0.35718E+02 -0.58951E+01 -0.38850E+01 -0.10504E+02      982.00
  0.25504E+00  0.58413E+02    0.13750E+00  0.13750E+00 -0.27500E+00  0.00000E+00  0.00000E+00  0.00000E+00    0.15963E+02  0.20032E+02 -0.35996E+02 -0.58699E+01 -0.38916E+01 -0.10576E+02      982.00
  0.27815E+00  0.58872E+02    0.15000E+00  0.15000E+00 -0.30000E+00  0.00000E+00  0.00000E+00  0.00000E+00    0.16056E+02  0.20238E+02 -0.36294E+02 -0.58377E+01 -0.39048E+01 -0.10660E+02      982.00
  0.30127E+00  0.59340E+02    0.16250E+00  0.16250E+00 -0.32500E+00  0.00000E+00  0.00000E+00  0.00000E+00    0.16141E+02  0.20459E+02 -0.36600E+02 -0.57972E+01 -0.39241E+01 -0.10741E+02      982.00
  0.32440E+00  0.59811E+02    0.17500E+00  0.17500E+00 -0.35000E+00  0.00000E+00  0.00000E+00  0.00000E+00    0.16221E+02  0.20690E+02 -0.36911E+02 -0.57493E+01 -0.39489E+01 -0.10817E+02      982.00
  0.34754E+00  0.60283E+02    0.18750E+00  0.18750E+00 -0.37500E+00  0.00000E+00  0.00000E+00  0.00000E+00    0.16297E+02  0.20927E+02 -0.37224E+02 -0.56958E+01 -0.39789E+01 -0.10886E+02      982.00
  0.37070E+00  0.60752E+02    0.20000E+00  0.20000E+00 -0.40000E+00  0.00000E+00  0.00000E+00  0.00000E+00    0.16370E+02  0.21168E+02 -0.37538E+02 -0.56378E+01 -0.40136E+01 -0.10947E+02      982.00
  0.39387E+00  0.61212E+02    0.21250E+00  0.21250E+00 -0.42500E+00  0.00000E+00  0.00000E+00  0.00000E+00    0.16439E+02  0.21410E+02 -0.37848E+02 -0.55745E+01 -0.40502E+01 -0.10998E+02      982.00
  0.41706E+00  0.61688E+02    0.22500E+00  0.22500E+00 -0.45000E+00  0.00000E+00  0.00000E+00  0.00000E+00    0.16498E+02  0.21672E+02 -0.38171E+02 -0.55034E+01 -0.40967E+01 -0.11043E+02      982.00
  0.44026E+00  0.62131E+02    0.23750E+00  0.23750E+00 -0.47500E+00  0.00000E+00  0.00000E+00  0.00000E+00    0.16562E+02  0.21912E+02 -0.38474E+02 -0.54353E+01 -0.41422E+01 -0.11076E+02      982.00
  0.46348E+00  0.62561E+02    0.25000E+00  0.25000E+00 -0.50000E+00  0.00000E+00  0.00000E+00  0.00000E+00    0.16624E+02  0.22148E+02 -0.38772E+02 -0.53656E+01 -0.41896E+01 -0.11100E+02      982.00
  0.48672E+00  0.62961E+02    0.26250E+00  0.26250E+00 -0.52500E+00  0.00000E+00  0.00000E+00  0.00000E+00    0.16689E+02  0.22362E+02 -0.39051E+02 -0.53052E+01 -0.42302E+01 -0.11116E+02      982.00
  0.50998E+00  0.63363E+02    0.27500E+00  0.27500E+00 -0.55000E+00  0.00000E+00  0.00000E+00  0.00000E+00    0.16745E+02  0.22589E+02 -0.39334E+02 -0.52338E+01 -0.42775E+01 -0.11122E+02      982.00
  0.53326E+00  0.63749E+02    0.28750E+00  0.28750E+00 -0.57500E+00  0.00000E+00  0.00000E+00  0.00000E+00    0.16798E+02  0.22811E+02 -0.39608E+02 -0.51606E+01 -0.43246E+01 -0.11119E+02      982.00
  0.55656E+00  0.64117E+02    0.30000E+00  0.30000E+00 -0.60000E+00  0.00000E+00  0.00000E+00  0.00000E+00    0.16848E+02  0.23026E+02 -0.39874E+02 -0.50863E+01 -0.43708E+01 -0.11108E+02      982.00
  0.57988E+00  0.64469E+02    0.31250E+00  0.31250E+00 -0.62500E+00  0.00000E+00  0.00000E+00  0.00000E+00    0.16895E+02  0.23235E+02 -0.40129E+02 -0.50109E+01 -0.44157E+01 -0.11089E+02      982.00
  0.60322E+00  0.64803E+02    0.32500E+00  0.32500E+00 -0.65000E+00  0.00000E+00  0.00000E+00  0.00000E+00    0.16938E+02  0.23437E+02 -0.40375E+02 -0.49347E+01 -0.44591E+01 -0.11063E+02      982.00
  0.62659E+00  0.65107E+02    0.33750E+00  0.33750E+00 -0.67500E+00  0.00000E+00  0.00000E+00  0.00000E+00    0.16980E+02  0.23622E+02 -0.40601E+02 -0.48690E+01 -0.44871E+01 -0.11035E+02      982.00
  0.64997E+00  0.65409E+02    0.35000E+00  0.35000E+00 -0.70000E+00  0.00000E+00  0.00000E+00  0.00000E+00    0.17015E+02  0.23813E+02 -0.40828E+02 -0.47927E+01 -0.45263E+01 -0.10996E+02      982.00
  0.67338E+00  0.65695E+02    0.36250E+00  0.36250E+00 -0.72500E+00  0.00000E+00  0.00000E+00  0.00000E+00    0.17048E+02  0.23997E+02 -0.41045E+02 -0.47157E+01 -0.45640E+01 -0.10951E+02      982.00
  0.69681E+00  0.65964E+02    0.37500E+00  0.37500E+00 -0.75000E+00  0.00000E+00  0.00000E+00  0.00000E+00    0.17077E+02  0.24175E+02 -0.41252E+02 -0.46385E+01 -0.45998E+01 -0.10901E+02      982.00
  0.72026E+00  0.66217E+02    0.38750E+00  0.38750E+00 -0.77500E+00  0.00000E+00  0.00000E+00  0.00000E+00    0.17102E+02  0.24347E+02 -0.41449E+02 -0.45614E+01 -0.46335E+01 -0.10846E+02      982.00
  0.74373E+00  0.66455E+02    0.40000E+00  0.40000E+00 -0.80000E+00  0.00000E+00  0.00000E+00  0.00000E+00    0.17123E+02  0.24514E+02 -0.41637E+02 -0.44846E+01 -0.46653E+01 -0.10787E+02      982.00
  0.76723E+00  0.66689E+02    0.41250E+00  0.41250E+00 -0.82500E+00  0.00000E+00  0.00000E+00  0.00000E+00    0.17136E+02  0.24686E+02 -0.41821E+02 -0.44124E+01 -0.46899E+01 -0.10722E+02      982.00
  0.79075E+00  0.66898E+02    0.42500E+00  0.42500E+00 -0.85000E+00  0.00000E+00  0.00000E+00  0.00000E+00    0.17148E+02  0.24842E+02 -0.41990E+02 -0.43370E+01 -0.47177E+01 -0.10656E+02      982.00
  0.81428E+00  0.67095E+02    0.43750E+00  0.43750E+00 -0.87500E+00  0.00000E+00  0.00000E+00  0.00000E+00    0.17156E+02  0.24994E+02 -0.42150E+02 -0.42621E+01 -0.47441E+01 -0.10586E+02      982.00
  0.83784E+00  0.67279E+02    0.45000E+00  0.45000E+00 -0.90000E+00  0.00000E+00  0.00000E+00  0.00000E+00    0.17160E+02  0.25142E+02 -0.42302E+02 -0.41880E+01 -0.47690E+01 -0.10514E+02      982.00
  0.86142E+00  0.67452E+02    0.46250E+00  0.46250E+00 -0.92500E+00  0.00000E+00  0.00000E+00  0.00000E+00    0.17160E+02  0.25285E+02 -0.42445E+02 -0.41149E+01 -0.47924E+01 -0.10439E+02      982.00
  0.88502E+00  0.67545E+02    0.47500E+00  0.47500E+00 -0.95000E+00  0.00000E+00  0.00000E+00  0.00000E+00    0.17146E+02  0.25399E+02 -0.42545E+02 -0.40256E+01 -0.47881E+01 -0.10346E+02      982.00
  0.90864E+00  0.67634E+02    0.48750E+00  0.48750E+00 -0.97500E+00  0.00000E+00  0.00000E+00  0.00000E+00    0.17132E+02  0.25509E+02 -0.42641E+02 -0.39399E+01 -0.47870E+01 -0.10254E+02      982.00
  0.93228E+00  0.67718E+02    0.50000E+00  0.50000E+00 -0.10000E+01  0.00000E+00  0.00000E+00  0.00000E+00    0.17114E+02  0.25616E+02 -0.42730E+02 -0.38563E+01 -0.47856E+01 -0.10164E+02      982.00
