          Evm          Svm            E11          E22          E33          E23          E13          E12         SDEV11       SDEV22       SDEV33       SDEV23       SDEV13       SDEV12      TEMP
  0.00000E+00  0.61643E+02    0.00000E+00  0.00000E+00  0.00000E+00  0.00000E+00  0.00000E+00  0.00000E+00    0.20839E+02  0.16146E+02 -0.36986E+02  0.58405E+01 -0.50252E+01  0.13259E+02      982.00
  0.22500E-01  0.61695E+02    0.12500E-01  0.12500E-01 -0.25000E-01  0.00000E+00  0.00000E+00  0.00000E+00    0.20988E+02  0.16162E+02 -0.37150E+02  0.56997E+01 -0.50906E+01  0.13017E+02      982.00
  0.45081E-01  0.61760E+02    0.25000E-01  0.25000E-01 -0.50000E-01  0.00000E+00  0.00000E+00  0.00000E+00    0.21123E+02  0.16185E+02 -0.37308E+02  0.55471E+01 -0.51122E+01  0.12827E+02      982.00
  0.67734E-01  0.61860E+02    0.37500E-01  0.37500E-01 -0.75000E-01  0.00000E+00  0.00000E+00  0.00000E+00    0.21271E+02  0.16202E+02 -0.37472E+02  0.53955E+01 -0.51124E+01  0.12680E+02      982.00
  0.90449E-01  0.61993E+02    0.50000E-01  0.50000E-01 -0.10000E+00  0.00000E+00  0.00000E+00  0.00000E+00    0.21426E+02  0.16216E+02 -0.37642E+02  0.52505E+01 -0.50955E+01  0.12572E+02      982.00
  0.11322E+00  0.62153E+02    0.62500E-01  0.62500E-01 -0.12500E+00  0.00000E+00  0.00000E+00  0.00000E+00    0.21590E+02  0.16224E+02 -0.37814E+02  0.51131E+01 -0.50657E+01  0.12499E+02      982.00
  0.13603E+00  0.62347E+02    0.75000E-01  0.75000E-01 -0.15000E+00  0.00000E+00  0.00000E+00  0.00000E+00    0.21751E+02  0.16245E+02 -0.37996E+02  0.49901E+01 -0.50279E+01  0.12456E+02      982.00
  0.15889E+00  0.62567E+02    0.87500E-01  0.87500E-01 -0.17500E+00  0.00000E+00  0.00000E+00  0.00000E+00    0.21908E+02  0.16276E+02 -0.38184E+02  0.48802E+01 -0.49866E+01  0.12439E+02      982.00
  0.18177E+00  0.62808E+02    0.10000E+00  0.10000E+00 -0.20000E+00  0.00000E+00  0.00000E+00  0.00000E+00    0.22061E+02  0.16316E+02 -0.38377E+02  0.47833E+01 -0.49449E+01  0.12441E+02      982.00
  0.20469E+00  0.63057E+02    0.11250E+00  0.11250E+00 -0.22500E+00  0.00000E+00  0.00000E+00  0.00000E+00    0.22209E+02  0.16356E+02 -0.38565E+02  0.46947E+01 -0.49005E+01  0.12464E+02      982.00
  0.22762E+00  0.63329E+02    0.12500E+00  0.12500E+00 -0.25000E+00  0.00000E+00  0.00000E+00  0.00000E+00    0.22347E+02  0.16418E+02 -0.38765E+02  0.46228E+01 -0.48630E+01  0.12492E+02      982.00
  0.25058E+00  0.63609E+02    0.13750E+00  0.13750E+00 -0.27500E+00  0.00000E+00  0.00000E+00  0.00000E+00    0.22475E+02  0.16489E+02 -0.38965E+02  0.45620E+01 -0.48292E+01  0.12527E+02      982.00
  0.27355E+00  0.63890E+02    0.15000E+00  0.15000E+00 -0.30000E+00  0.00000E+00  0.00000E+00  0.00000E+00    0.22596E+02  0.16564E+02 -0.39159E+02  0.45069E+01 -0.47953E+01  0.12576E+02      982.00
  0.29653E+00  0.64173E+02    0.16250E+00  0.16250E+00 -0.32500E+00  0.00000E+00  0.00000E+00  0.00000E+00    0.22704E+02  0.16653E+02 -0.39357E+02  0.44655E+01 -0.47689E+01  0.12617E+02      982.00
  0.31953E+00  0.64451E+02    0.17500E+00  0.17500E+00 -0.35000E+00  0.00000E+00  0.00000E+00  0.00000E+00    0.22801E+02  0.16749E+02 -0.39550E+02  0.44316E+01 -0.47454E+01  0.12657E+02      982.00
  0.34254E+00  0.64737E+02    0.18750E+00  0.18750E+00 -0.37500E+00  0.00000E+00  0.00000E+00  0.00000E+00    0.22891E+02  0.16854E+02 -0.39745E+02  0.44002E+01 -0.47214E+01  0.12707E+02      982.00
  0.36556E+00  0.64998E+02    0.20000E+00  0.20000E+00 -0.40000E+00  0.00000E+00  0.00000E+00  0.00000E+00    0.22966E+02  0.16960E+02 -0.39926E+02  0.43781E+01 -0.47017E+01  0.12742E+02      982.00
  0.38860E+00  0.65236E+02    0.21250E+00  0.21250E+00 -0.42500E+00  0.00000E+00  0.00000E+00  0.00000E+00    0.23034E+02  0.17061E+02 -0.40095E+02  0.43632E+01 -0.46847E+01  0.12765E+02      982.00
  0.41165E+00  0.65474E+02    0.22500E+00  0.22500E+00 -0.45000E+00  0.00000E+00  0.00000E+00  0.00000E+00    0.23094E+02  0.17168E+02 -0.40262E+02  0.43484E+01 -0.46659E+01  0.12794E+02      982.00
  0.43471E+00  0.65699E+02    0.23750E+00  0.23750E+00 -0.47500E+00  0.00000E+00  0.00000E+00  0.00000E+00    0.23145E+02  0.17276E+02 -0.40421E+02  0.43359E+01 -0.46470E+01  0.12821E+02      982.00
  0.45778E+00  0.65911E+02    0.25000E+00  0.25000E+00 -0.50000E+00  0.00000E+00  0.00000E+00  0.00000E+00    0.23189E+02  0.17384E+02 -0.40572E+02  0.43253E+01 -0.46278E+01  0.12844E+02      982.00
  0.48086E+00  0.66110E+02    0.26250E+00  0.26250E+00 -0.52500E+00  0.00000E+00  0.00000E+00  0.00000E+00    0.23225E+02  0.17490E+02 -0.40715E+02  0.43160E+01 -0.46081E+01  0.12864E+02      982.00
  0.50396E+00  0.66295E+02    0.27500E+00  0.27500E+00 -0.55000E+00  0.00000E+00  0.00000E+00  0.00000E+00    0.23255E+02  0.17594E+02 -0.40849E+02  0.43078E+01 -0.45878E+01  0.12881E+02      982.00
  0.52706E+00  0.66468E+02    0.28750E+00  0.28750E+00 -0.57500E+00  0.00000E+00  0.00000E+00  0.00000E+00    0.23279E+02  0.17696E+02 -0.40975E+02  0.43002E+01 -0.45670E+01  0.12895E+02      982.00
  0.55018E+00  0.66628E+02    0.30000E+00  0.30000E+00 -0.60000E+00  0.00000E+00  0.00000E+00  0.00000E+00    0.23298E+02  0.17795E+02 -0.41094E+02  0.42931E+01 -0.45457E+01  0.12906E+02      982.00
  0.57331E+00  0.66777E+02    0.31250E+00  0.31250E+00 -0.62500E+00  0.00000E+00  0.00000E+00  0.00000E+00    0.23313E+02  0.17891E+02 -0.41205E+02  0.42863E+01 -0.45239E+01  0.12916E+02      982.00
  0.59645E+00  0.66914E+02    0.32500E+00  0.32500E+00 -0.65000E+00  0.00000E+00  0.00000E+00  0.00000E+00    0.23324E+02  0.17984E+02 -0.41308E+02  0.42797E+01 -0.45018E+01  0.12923E+02      982.00
  0.61960E+00  0.67041E+02    0.33750E+00  0.33750E+00 -0.67500E+00  0.00000E+00  0.00000E+00  0.00000E+00    0.23332E+02  0.18073E+02 -0.41405E+02  0.42732E+01 -0.44795E+01  0.12928E+02      982.00
  0.64276E+00  0.67159E+02    0.35000E+00  0.35000E+00 -0.70000E+00  0.00000E+00  0.00000E+00  0.00000E+00    0.23337E+02  0.18158E+02 -0.41496E+02  0.42668E+01 -0.44571E+01  0.12932E+02      982.00
  0.66593E+00  0.67255E+02    0.36250E+00  0.36250E+00 -0.72500E+00  0.00000E+00  0.00000E+00  0.00000E+00    0.23328E+02  0.18241E+02 -0.41570E+02  0.42621E+01 -0.44344E+01  0.12939E+02      982.00
  0.68911E+00  0.67357E+02    0.37500E+00  0.37500E+00 -0.75000E+00  0.00000E+00  0.00000E+00  0.00000E+00    0.23329E+02  0.18320E+02 -0.41649E+02  0.42558E+01 -0.44118E+01  0.12941E+02      982.00
  0.71230E+00  0.67451E+02    0.38750E+00  0.38750E+00 -0.77500E+00  0.00000E+00  0.00000E+00  0.00000E+00    0.23329E+02  0.18394E+02 -0.41724E+02  0.42496E+01 -0.43894E+01  0.12942E+02      982.00
  0.73549E+00  0.67539E+02    0.40000E+00  0.40000E+00 -0.80000E+00  0.00000E+00  0.00000E+00  0.00000E+00    0.23328E+02  0.18465E+02 -0.41793E+02  0.42434E+01 -0.43674E+01  0.12943E+02      982.00
  0.75870E+00  0.67619E+02    0.41250E+00  0.41250E+00 -0.82500E+00  0.00000E+00  0.00000E+00  0.00000E+00    0.23325E+02  0.18532E+02 -0.41857E+02  0.42374E+01 -0.43458E+01  0.12942E+02      982.00
  0.78191E+00  0.67694E+02    0.42500E+00  0.42500E+00 -0.85000E+00  0.00000E+00  0.00000E+00  0.00000E+00    0.23322E+02  0.18596E+02 -0.41918E+02  0.42315E+01 -0.43247E+01  0.12941E+02      982.00
  0.80513E+00  0.67763E+02    0.43750E+00  0.43750E+00 -0.87500E+00  0.00000E+00  0.00000E+00  0.00000E+00    0.23318E+02  0.18656E+02 -0.41974E+02  0.42257E+01 -0.43041E+01  0.12940E+02      982.00
  0.82836E+00  0.67828E+02    0.45000E+00  0.45000E+00 -0.90000E+00  0.00000E+00  0.00000E+00  0.00000E+00    0.23305E+02  0.18722E+02 -0.42027E+02  0.42182E+01 -0.42776E+01  0.12942E+02      982.00
  0.85160E+00  0.67887E+02    0.46250E+00  0.46250E+00 -0.92500E+00  0.00000E+00  0.00000E+00  0.00000E+00    0.23299E+02  0.18776E+02 -0.42075E+02  0.42127E+01 -0.42569E+01  0.12941E+02      982.00
  0.87484E+00  0.67941E+02    0.47500E+00  0.47500E+00 -0.95000E+00  0.00000E+00  0.00000E+00  0.00000E+00    0.23294E+02  0.18826E+02 -0.42120E+02  0.42076E+01 -0.42378E+01  0.12939E+02      982.00
  0.89809E+00  0.67992E+02    0.48750E+00  0.48750E+00 -0.97500E+00  0.00000E+00  0.00000E+00  0.00000E+00    0.23289E+02  0.18873E+02 -0.42163E+02  0.42027E+01 -0.42197E+01  0.12937E+02      982.00
  0.92134E+00  0.68039E+02    0.50000E+00  0.50000E+00 -0.10000E+01  0.00000E+00  0.00000E+00  0.00000E+00    0.23284E+02  0.18918E+02 -0.42202E+02  0.41982E+01 -0.42023E+01  0.12935E+02      982.00
