          Evm          Svm            E11          E22          E33          E23          E13          E12         SDEV11       SDEV22       SDEV33       SDEV23       SDEV13       SDEV12      TEMP
  0.00000E+00  0.61189E+02    0.00000E+00  0.00000E+00  0.00000E+00  0.00000E+00  0.00000E+00  0.00000E+00    0.21856E+02  0.16072E+02 -0.37928E+02 -0.33494E+01  0.54838E+01  0.10929E+02      982.00
  0.23245E-01  0.61348E+02    0.12500E-01  0.12500E-01 -0.25000E-01  0.00000E+00  0.00000E+00  0.00000E+00    0.21420E+02  0.16545E+02 -0.37965E+02 -0.34917E+01  0.52165E+01  0.11321E+02      982.00
  0.46451E-01  0.61541E+02    0.25000E-01  0.25000E-01 -0.50000E-01  0.00000E+00  0.00000E+00  0.00000E+00    0.21048E+02  0.16957E+02 -0.38006E+02 -0.35912E+01  0.49922E+01  0.11709E+02      982.00
  0.69610E-01  0.61704E+02    0.37500E-01  0.37500E-01 -0.75000E-01  0.00000E+00  0.00000E+00  0.00000E+00    0.20704E+02  0.17322E+02 -0.38026E+02 -0.36664E+01  0.47912E+01  0.12059E+02      982.00
  0.92720E-01  0.61805E+02    0.50000E-01  0.50000E-01 -0.10000E+00  0.00000E+00  0.00000E+00  0.00000E+00    0.20409E+02  0.17613E+02 -0.38022E+02 -0.36852E+01  0.45900E+01  0.12344E+02      982.00
  0.11579E+00  0.61879E+02    0.62500E-01  0.62500E-01 -0.12500E+00  0.00000E+00  0.00000E+00  0.00000E+00    0.20180E+02  0.17843E+02 -0.38023E+02 -0.36241E+01  0.43588E+01  0.12590E+02      982.00
  0.13883E+00  0.61963E+02    0.75000E-01  0.75000E-01 -0.15000E+00  0.00000E+00  0.00000E+00  0.00000E+00    0.20018E+02  0.18025E+02 -0.38043E+02 -0.34842E+01  0.40972E+01  0.12823E+02      982.00
  0.16186E+00  0.62070E+02    0.87500E-01  0.87500E-01 -0.17500E+00  0.00000E+00  0.00000E+00  0.00000E+00    0.19895E+02  0.18187E+02 -0.38082E+02 -0.32947E+01  0.38093E+01  0.13055E+02      982.00
  0.18486E+00  0.62204E+02    0.10000E+00  0.10000E+00 -0.20000E+00  0.00000E+00  0.00000E+00  0.00000E+00    0.19806E+02  0.18332E+02 -0.38138E+02 -0.30786E+01  0.35191E+01  0.13285E+02      982.00
  0.20786E+00  0.62364E+02    0.11250E+00  0.11250E+00 -0.22500E+00  0.00000E+00  0.00000E+00  0.00000E+00    0.19739E+02  0.18466E+02 -0.38206E+02 -0.28601E+01  0.32412E+01  0.13511E+02      982.00
  0.23083E+00  0.62547E+02    0.12500E+00  0.12500E+00 -0.25000E+00  0.00000E+00  0.00000E+00  0.00000E+00    0.19684E+02  0.18598E+02 -0.38281E+02 -0.26560E+01  0.29822E+01  0.13736E+02      982.00
  0.25378E+00  0.62749E+02    0.13750E+00  0.13750E+00 -0.27500E+00  0.00000E+00  0.00000E+00  0.00000E+00    0.19646E+02  0.18716E+02 -0.38362E+02 -0.24709E+01  0.27547E+01  0.13959E+02      982.00
  0.27671E+00  0.62967E+02    0.15000E+00  0.15000E+00 -0.30000E+00  0.00000E+00  0.00000E+00  0.00000E+00    0.19611E+02  0.18833E+02 -0.38445E+02 -0.23111E+01  0.25528E+01  0.14181E+02      982.00
  0.29960E+00  0.63196E+02    0.16250E+00  0.16250E+00 -0.32500E+00  0.00000E+00  0.00000E+00  0.00000E+00    0.19590E+02  0.18938E+02 -0.38528E+02 -0.21721E+01  0.23814E+01  0.14404E+02      982.00
  0.32246E+00  0.63430E+02    0.17500E+00  0.17500E+00 -0.35000E+00  0.00000E+00  0.00000E+00  0.00000E+00    0.19573E+02  0.19035E+02 -0.38609E+02 -0.20542E+01  0.22344E+01  0.14624E+02      982.00
  0.34529E+00  0.63667E+02    0.18750E+00  0.18750E+00 -0.37500E+00  0.00000E+00  0.00000E+00  0.00000E+00    0.19554E+02  0.19135E+02 -0.38689E+02 -0.19576E+01  0.21062E+01  0.14841E+02      982.00
  0.36808E+00  0.63901E+02    0.20000E+00  0.20000E+00 -0.40000E+00  0.00000E+00  0.00000E+00  0.00000E+00    0.19542E+02  0.19220E+02 -0.38762E+02 -0.18752E+01  0.20007E+01  0.15056E+02      982.00
  0.39082E+00  0.64131E+02    0.21250E+00  0.21250E+00 -0.42500E+00  0.00000E+00  0.00000E+00  0.00000E+00    0.19524E+02  0.19310E+02 -0.38834E+02 -0.18103E+01  0.19078E+01  0.15263E+02      982.00
  0.41353E+00  0.64356E+02    0.22500E+00  0.22500E+00 -0.45000E+00  0.00000E+00  0.00000E+00  0.00000E+00    0.19513E+02  0.19388E+02 -0.38900E+02 -0.17547E+01  0.18311E+01  0.15466E+02      982.00
  0.43620E+00  0.64574E+02    0.23750E+00  0.23750E+00 -0.47500E+00  0.00000E+00  0.00000E+00  0.00000E+00    0.19501E+02  0.19461E+02 -0.38963E+02 -0.17096E+01  0.17666E+01  0.15663E+02      982.00
  0.45883E+00  0.64783E+02    0.25000E+00  0.25000E+00 -0.50000E+00  0.00000E+00  0.00000E+00  0.00000E+00    0.19490E+02  0.19531E+02 -0.39021E+02 -0.16737E+01  0.17123E+01  0.15850E+02      982.00
  0.48141E+00  0.64979E+02    0.26250E+00  0.26250E+00 -0.52500E+00  0.00000E+00  0.00000E+00  0.00000E+00    0.19471E+02  0.19605E+02 -0.39075E+02 -0.16482E+01  0.16639E+01  0.16025E+02      982.00
  0.50396E+00  0.65170E+02    0.27500E+00  0.27500E+00 -0.55000E+00  0.00000E+00  0.00000E+00  0.00000E+00    0.19459E+02  0.19668E+02 -0.39126E+02 -0.16271E+01  0.16261E+01  0.16195E+02      982.00
  0.52648E+00  0.65348E+02    0.28750E+00  0.28750E+00 -0.57500E+00  0.00000E+00  0.00000E+00  0.00000E+00    0.19447E+02  0.19725E+02 -0.39172E+02 -0.16116E+01  0.15953E+01  0.16354E+02      982.00
  0.54896E+00  0.65510E+02    0.30000E+00  0.30000E+00 -0.60000E+00  0.00000E+00  0.00000E+00  0.00000E+00    0.19436E+02  0.19776E+02 -0.39211E+02 -0.16021E+01  0.15727E+01  0.16502E+02      982.00
  0.57140E+00  0.65658E+02    0.31250E+00  0.31250E+00 -0.62500E+00  0.00000E+00  0.00000E+00  0.00000E+00    0.19416E+02  0.19833E+02 -0.39249E+02 -0.15974E+01  0.15486E+01  0.16631E+02      982.00
  0.59382E+00  0.65806E+02    0.32500E+00  0.32500E+00 -0.65000E+00  0.00000E+00  0.00000E+00  0.00000E+00    0.19406E+02  0.19880E+02 -0.39286E+02 -0.15941E+01  0.15320E+01  0.16763E+02      982.00
  0.61621E+00  0.65944E+02    0.33750E+00  0.33750E+00 -0.67500E+00  0.00000E+00  0.00000E+00  0.00000E+00    0.19397E+02  0.19923E+02 -0.39320E+02 -0.15935E+01  0.15192E+01  0.16885E+02      982.00
  0.63857E+00  0.66082E+02    0.35000E+00  0.35000E+00 -0.70000E+00  0.00000E+00  0.00000E+00  0.00000E+00    0.19381E+02  0.19971E+02 -0.39351E+02 -0.15951E+01  0.15047E+01  0.17010E+02      982.00
  0.66090E+00  0.66187E+02    0.36250E+00  0.36250E+00 -0.72500E+00  0.00000E+00  0.00000E+00  0.00000E+00    0.19381E+02  0.19995E+02 -0.39376E+02 -0.16002E+01  0.15044E+01  0.17103E+02      982.00
  0.68321E+00  0.66300E+02    0.37500E+00  0.37500E+00 -0.75000E+00  0.00000E+00  0.00000E+00  0.00000E+00    0.19375E+02  0.20027E+02 -0.39402E+02 -0.16052E+01  0.14994E+01  0.17202E+02      982.00
  0.70549E+00  0.66405E+02    0.38750E+00  0.38750E+00 -0.77500E+00  0.00000E+00  0.00000E+00  0.00000E+00    0.19370E+02  0.20057E+02 -0.39427E+02 -0.16119E+01  0.14957E+01  0.17293E+02      982.00
  0.72776E+00  0.66489E+02    0.40000E+00  0.40000E+00 -0.80000E+00  0.00000E+00  0.00000E+00  0.00000E+00    0.19360E+02  0.20090E+02 -0.39450E+02 -0.16194E+01  0.14891E+01  0.17361E+02      982.00
  0.75001E+00  0.66583E+02    0.41250E+00  0.41250E+00 -0.82500E+00  0.00000E+00  0.00000E+00  0.00000E+00    0.19357E+02  0.20115E+02 -0.39472E+02 -0.16281E+01  0.14881E+01  0.17442E+02      982.00
  0.77224E+00  0.66690E+02    0.42500E+00  0.42500E+00 -0.85000E+00  0.00000E+00  0.00000E+00  0.00000E+00    0.19344E+02  0.20154E+02 -0.39498E+02 -0.16383E+01  0.14782E+01  0.17533E+02      982.00
  0.79445E+00  0.66768E+02    0.43750E+00  0.43750E+00 -0.87500E+00  0.00000E+00  0.00000E+00  0.00000E+00    0.19342E+02  0.20174E+02 -0.39515E+02 -0.16501E+01  0.14792E+01  0.17601E+02      982.00
  0.81664E+00  0.66840E+02    0.45000E+00  0.45000E+00 -0.90000E+00  0.00000E+00  0.00000E+00  0.00000E+00    0.19343E+02  0.20189E+02 -0.39532E+02 -0.16609E+01  0.14818E+01  0.17663E+02      982.00
  0.83882E+00  0.66908E+02    0.46250E+00  0.46250E+00 -0.92500E+00  0.00000E+00  0.00000E+00  0.00000E+00    0.19347E+02  0.20201E+02 -0.39548E+02 -0.16717E+01  0.14852E+01  0.17721E+02      982.00
  0.86099E+00  0.66972E+02    0.47500E+00  0.47500E+00 -0.95000E+00  0.00000E+00  0.00000E+00  0.00000E+00    0.19351E+02  0.20211E+02 -0.39562E+02 -0.16825E+01  0.14890E+01  0.17775E+02      982.00
  0.88314E+00  0.67031E+02    0.48750E+00  0.48750E+00 -0.97500E+00  0.00000E+00  0.00000E+00  0.00000E+00    0.19356E+02  0.20220E+02 -0.39575E+02 -0.16932E+01  0.14929E+01  0.17826E+02      982.00
  0.90528E+00  0.67111E+02    0.50000E+00  0.50000E+00 -0.10000E+01  0.00000E+00  0.00000E+00  0.00000E+00    0.19358E+02  0.20230E+02 -0.39588E+02 -0.17126E+01  0.14985E+01  0.17903E+02      982.00
