          Evm          Svm            E11          E22          E33          E23          E13          E12         SDEV11       SDEV22       SDEV33       SDEV23       SDEV13       SDEV12      TEMP
  0.00000E+00  0.56703E+02    0.00000E+00  0.00000E+00  0.00000E+00  0.00000E+00  0.00000E+00  0.00000E+00    0.16407E+02  0.16847E+02 -0.33254E+02 -0.34674E+01  0.29244E+01  0.14891E+02      982.00
  0.21992E-01  0.56793E+02    0.12500E-01  0.12500E-01 -0.25000E-01  0.00000E+00  0.00000E+00  0.00000E+00    0.16461E+02  0.16878E+02 -0.33339E+02 -0.33861E+01  0.28620E+01  0.14894E+02      982.00
  0.44006E-01  0.56969E+02    0.25000E-01  0.25000E-01 -0.50000E-01  0.00000E+00  0.00000E+00  0.00000E+00    0.16524E+02  0.16930E+02 -0.33454E+02 -0.33033E+01  0.27862E+01  0.14957E+02      982.00
  0.66027E-01  0.57227E+02    0.37500E-01  0.37500E-01 -0.75000E-01  0.00000E+00  0.00000E+00  0.00000E+00    0.16596E+02  0.17001E+02 -0.33597E+02 -0.32222E+01  0.27050E+01  0.15078E+02      982.00
  0.88043E-01  0.57545E+02    0.50000E-01  0.50000E-01 -0.10000E+00  0.00000E+00  0.00000E+00  0.00000E+00    0.16673E+02  0.17086E+02 -0.33758E+02 -0.31413E+01  0.26214E+01  0.15241E+02      982.00
  0.11004E+00  0.57922E+02    0.62500E-01  0.62500E-01 -0.12500E+00  0.00000E+00  0.00000E+00  0.00000E+00    0.16759E+02  0.17185E+02 -0.33944E+02 -0.30646E+01  0.25390E+01  0.15437E+02      982.00
  0.13202E+00  0.58338E+02    0.75000E-01  0.75000E-01 -0.15000E+00  0.00000E+00  0.00000E+00  0.00000E+00    0.16853E+02  0.17292E+02 -0.34145E+02 -0.30035E+01  0.24730E+01  0.15647E+02      982.00
  0.15397E+00  0.58781E+02    0.87500E-01  0.87500E-01 -0.17500E+00  0.00000E+00  0.00000E+00  0.00000E+00    0.16951E+02  0.17408E+02 -0.34359E+02 -0.29362E+01  0.24002E+01  0.15872E+02      982.00
  0.17589E+00  0.59239E+02    0.10000E+00  0.10000E+00 -0.20000E+00  0.00000E+00  0.00000E+00  0.00000E+00    0.17051E+02  0.17526E+02 -0.34577E+02 -0.28748E+01  0.23340E+01  0.16103E+02      982.00
  0.19777E+00  0.59703E+02    0.11250E+00  0.11250E+00 -0.22500E+00  0.00000E+00  0.00000E+00  0.00000E+00    0.17155E+02  0.17647E+02 -0.34801E+02 -0.28191E+01  0.22739E+01  0.16328E+02      982.00
  0.21963E+00  0.60154E+02    0.12500E+00  0.12500E+00 -0.25000E+00  0.00000E+00  0.00000E+00  0.00000E+00    0.17257E+02  0.17764E+02 -0.35021E+02 -0.27689E+01  0.22214E+01  0.16541E+02      982.00
  0.24147E+00  0.60586E+02    0.13750E+00  0.13750E+00 -0.27500E+00  0.00000E+00  0.00000E+00  0.00000E+00    0.17355E+02  0.17877E+02 -0.35233E+02 -0.27157E+01  0.21647E+01  0.16745E+02      982.00
  0.26327E+00  0.60998E+02    0.15000E+00  0.15000E+00 -0.30000E+00  0.00000E+00  0.00000E+00  0.00000E+00    0.17455E+02  0.17985E+02 -0.35440E+02 -0.26759E+01  0.21244E+01  0.16927E+02      982.00
  0.28506E+00  0.61393E+02    0.16250E+00  0.16250E+00 -0.32500E+00  0.00000E+00  0.00000E+00  0.00000E+00    0.17555E+02  0.18089E+02 -0.35643E+02 -0.26400E+01  0.20891E+01  0.17091E+02      982.00
  0.30683E+00  0.61768E+02    0.17500E+00  0.17500E+00 -0.35000E+00  0.00000E+00  0.00000E+00  0.00000E+00    0.17650E+02  0.18184E+02 -0.35834E+02 -0.25981E+01  0.20489E+01  0.17253E+02      982.00
  0.32859E+00  0.62100E+02    0.18750E+00  0.18750E+00 -0.37500E+00  0.00000E+00  0.00000E+00  0.00000E+00    0.17742E+02  0.18270E+02 -0.36012E+02 -0.25687E+01  0.20226E+01  0.17379E+02      982.00
  0.35034E+00  0.62408E+02    0.20000E+00  0.20000E+00 -0.40000E+00  0.00000E+00  0.00000E+00  0.00000E+00    0.17832E+02  0.18350E+02 -0.36182E+02 -0.25414E+01  0.19990E+01  0.17490E+02      982.00
  0.37208E+00  0.62695E+02    0.21250E+00  0.21250E+00 -0.42500E+00  0.00000E+00  0.00000E+00  0.00000E+00    0.17919E+02  0.18423E+02 -0.36342E+02 -0.25159E+01  0.19786E+01  0.17589E+02      982.00
  0.39381E+00  0.62950E+02    0.22500E+00  0.22500E+00 -0.45000E+00  0.00000E+00  0.00000E+00  0.00000E+00    0.18000E+02  0.18487E+02 -0.36486E+02 -0.24928E+01  0.19602E+01  0.17673E+02      982.00
  0.41555E+00  0.63198E+02    0.23750E+00  0.23750E+00 -0.47500E+00  0.00000E+00  0.00000E+00  0.00000E+00    0.18083E+02  0.18545E+02 -0.36628E+02 -0.24612E+01  0.19362E+01  0.17756E+02      982.00
  0.43728E+00  0.63418E+02    0.25000E+00  0.25000E+00 -0.50000E+00  0.00000E+00  0.00000E+00  0.00000E+00    0.18159E+02  0.18597E+02 -0.36756E+02 -0.24400E+01  0.19201E+01  0.17823E+02      982.00
  0.45902E+00  0.63611E+02    0.26250E+00  0.26250E+00 -0.52500E+00  0.00000E+00  0.00000E+00  0.00000E+00    0.18231E+02  0.18642E+02 -0.36873E+02 -0.24206E+01  0.19060E+01  0.17876E+02      982.00
  0.48075E+00  0.63790E+02    0.27500E+00  0.27500E+00 -0.55000E+00  0.00000E+00  0.00000E+00  0.00000E+00    0.18300E+02  0.18683E+02 -0.36983E+02 -0.24016E+01  0.18932E+01  0.17922E+02      982.00
  0.50250E+00  0.63930E+02    0.28750E+00  0.28750E+00 -0.57500E+00  0.00000E+00  0.00000E+00  0.00000E+00    0.18358E+02  0.18713E+02 -0.37071E+02 -0.23892E+01  0.18847E+01  0.17955E+02      982.00
  0.52424E+00  0.64089E+02    0.30000E+00  0.30000E+00 -0.60000E+00  0.00000E+00  0.00000E+00  0.00000E+00    0.18423E+02  0.18747E+02 -0.37170E+02 -0.23724E+01  0.18736E+01  0.17993E+02      982.00
  0.54599E+00  0.64221E+02    0.31250E+00  0.31250E+00 -0.62500E+00  0.00000E+00  0.00000E+00  0.00000E+00    0.18483E+02  0.18773E+02 -0.37256E+02 -0.23567E+01  0.18625E+01  0.18021E+02      982.00
  0.56774E+00  0.64351E+02    0.32500E+00  0.32500E+00 -0.65000E+00  0.00000E+00  0.00000E+00  0.00000E+00    0.18542E+02  0.18798E+02 -0.37340E+02 -0.23414E+01  0.18517E+01  0.18047E+02      982.00
  0.58950E+00  0.64470E+02    0.33750E+00  0.33750E+00 -0.67500E+00  0.00000E+00  0.00000E+00  0.00000E+00    0.18598E+02  0.18819E+02 -0.37417E+02 -0.23269E+01  0.18414E+01  0.18072E+02      982.00
  0.61127E+00  0.64576E+02    0.35000E+00  0.35000E+00 -0.70000E+00  0.00000E+00  0.00000E+00  0.00000E+00    0.18652E+02  0.18836E+02 -0.37488E+02 -0.23123E+01  0.18325E+01  0.18091E+02      982.00
  0.63304E+00  0.64676E+02    0.36250E+00  0.36250E+00 -0.72500E+00  0.00000E+00  0.00000E+00  0.00000E+00    0.18704E+02  0.18851E+02 -0.37555E+02 -0.22991E+01  0.18236E+01  0.18109E+02      982.00
  0.65481E+00  0.64788E+02    0.37500E+00  0.37500E+00 -0.75000E+00  0.00000E+00  0.00000E+00  0.00000E+00    0.18770E+02  0.18860E+02 -0.37630E+02 -0.22786E+01  0.18091E+01  0.18130E+02      982.00
  0.67659E+00  0.64855E+02    0.38750E+00  0.38750E+00 -0.77500E+00  0.00000E+00  0.00000E+00  0.00000E+00    0.18803E+02  0.18873E+02 -0.37677E+02 -0.22744E+01  0.18060E+01  0.18137E+02      982.00
  0.69838E+00  0.64948E+02    0.40000E+00  0.40000E+00 -0.80000E+00  0.00000E+00  0.00000E+00  0.00000E+00    0.18863E+02  0.18876E+02 -0.37739E+02 -0.22569E+01  0.17937E+01  0.18155E+02      982.00
  0.72017E+00  0.65022E+02    0.41250E+00  0.41250E+00 -0.82500E+00  0.00000E+00  0.00000E+00  0.00000E+00    0.18910E+02  0.18880E+02 -0.37790E+02 -0.22449E+01  0.17854E+01  0.18166E+02      982.00
  0.74196E+00  0.65087E+02    0.42500E+00  0.42500E+00 -0.85000E+00  0.00000E+00  0.00000E+00  0.00000E+00    0.18952E+02  0.18883E+02 -0.37835E+02 -0.22351E+01  0.17783E+01  0.18175E+02      982.00
  0.76376E+00  0.65129E+02    0.43750E+00  0.43750E+00 -0.87500E+00  0.00000E+00  0.00000E+00  0.00000E+00    0.18984E+02  0.18881E+02 -0.37864E+02 -0.22309E+01  0.17760E+01  0.18180E+02      982.00
  0.78556E+00  0.65194E+02    0.45000E+00  0.45000E+00 -0.90000E+00  0.00000E+00  0.00000E+00  0.00000E+00    0.19026E+02  0.18884E+02 -0.37909E+02 -0.22233E+01  0.17707E+01  0.18188E+02      982.00
  0.80737E+00  0.65249E+02    0.46250E+00  0.46250E+00 -0.92500E+00  0.00000E+00  0.00000E+00  0.00000E+00    0.19065E+02  0.18883E+02 -0.37948E+02 -0.22152E+01  0.17643E+01  0.18195E+02      982.00
  0.82918E+00  0.65297E+02    0.47500E+00  0.47500E+00 -0.95000E+00  0.00000E+00  0.00000E+00  0.00000E+00    0.19102E+02  0.18879E+02 -0.37981E+02 -0.22089E+01  0.17587E+01  0.18202E+02      982.00
  0.85099E+00  0.65347E+02    0.48750E+00  0.48750E+00 -0.97500E+00  0.00000E+00  0.00000E+00  0.00000E+00    0.19139E+02  0.18877E+02 -0.38016E+02 -0.22017E+01  0.17531E+01  0.18208E+02      982.00
  0.87281E+00  0.65365E+02    0.50000E+00  0.50000E+00 -0.10000E+01  0.00000E+00  0.00000E+00  0.00000E+00    0.19169E+02  0.18865E+02 -0.38034E+02 -0.21840E+01  0.17414E+01  0.18205E+02      982.00
